,timeSinceBoot,PCR Temp,PCR Modeled TempC,PCR Target TempC,PCR Thermocouple TempC,PCR HeatSink TempC
0,1795.684,35.46,35.45,55.0,,35.19
1,1795.684,,,,24.54,
2,1795.834,35.44,35.45,55.0,,35.17
3,1795.984,35.52,35.45,55.0,,35.13
4,1796.134,35.86,35.48,55.0,,35.1
5,1796.134,,,,24.25,
6,1796.284,36.49,35.57,55.0,,35.06
7,1796.434,37.52,35.75,55.0,,34.99
8,1796.584,38.8,36.03,55.0,,34.94
9,1796.733,40.21,36.42,55.0,,34.86
10,1796.884,41.77,36.92,55.0,,34.78
11,1796.884,,,,25.84,
12,1797.034,43.45,37.51,55.0,,34.72
13,1797.184,45.11,38.18,55.0,,34.67
14,1797.334,46.76,38.92,55.0,,34.6
15,1797.484,48.41,39.73,55.0,,34.52
16,1797.484,,,,26.5,
17,1797.634,50.12,40.59,55.0,,34.46
18,1797.784,51.78,41.49,55.0,,34.38
19,1797.934,53.44,42.42,55.0,,34.32
20,1798.084,55.08,43.37,55.0,,34.26
21,1798.084,,,,25.09,
22,1798.234,56.68,44.35,55.0,,34.19
23,1798.384,58.31,45.34,55.0,,34.14
24,1798.534,59.88,46.34,55.0,,34.08
25,1798.683,61.43,47.34,55.0,,34.02
26,1798.683,,,,25.22,
27,1798.834,62.91,48.36,55.0,,33.98
28,1798.989,64.36,49.37,55.0,,33.9
29,1799.139,65.89,50.39,55.0,,33.87
30,1799.289,67.24,51.4,55.0,,33.85
31,1799.289,,,,25.4,
32,1799.439,68.15,52.35,55.0,,33.86
33,1799.59,68.48,53.21,55.0,,33.94
34,1799.742,68.23,53.92,55.0,,34.06
35,1799.892,67.79,54.48,55.0,,34.21
36,1799.892,,,,25.65,
37,1800.042,66.95,54.87,55.0,,34.39
38,1800.187,65.92,55.1,55.0,,34.58
39,1800.337,64.84,55.2,55.0,,34.77
40,1800.482,63.73,55.18,55.0,,34.98
41,1800.482,,,,26.59,
42,1800.632,62.78,55.07,55.0,,35.16
43,1800.783,62.15,54.93,55.0,,35.27
44,1800.932,61.79,54.8,55.0,,35.34
45,1801.083,61.6,54.69,55.0,,35.38
46,1801.083,,,,26.55,
47,1801.233,61.52,54.61,55.0,,35.43
48,1801.383,61.45,54.57,55.0,,35.44
49,1801.532,61.45,54.55,55.0,,35.46
50,1801.683,61.43,54.55,55.0,,35.48
51,1801.683,,,,27.99,
52,1801.835,61.36,54.56,55.0,,35.48
53,1801.983,61.23,54.58,55.0,,35.49
54,1802.132,61.07,54.6,55.0,,35.48
55,1802.283,60.87,54.6,55.0,,35.47
56,1802.283,,,,33.11,
57,1802.433,60.68,54.6,55.0,,35.49
58,1802.583,60.5,54.6,55.0,,35.49
59,1802.734,60.31,54.59,55.0,,35.5
60,1802.886,60.16,54.59,55.0,,35.48
61,1802.886,,,,37.01,
62,1803.037,60.03,54.58,55.0,,35.46
63,1803.187,59.93,54.58,55.0,,35.46
64,1803.338,59.85,54.59,55.0,,35.45
65,1803.488,59.76,54.6,55.0,,35.42
66,1803.488,,,,39.82,
67,1803.638,59.68,54.61,55.0,,35.39
68,1803.788,59.61,54.63,55.0,,35.41
69,1803.937,59.54,54.65,55.0,,35.41
70,1804.086,59.47,54.67,55.0,,35.41
71,1804.086,,,,42.15,
72,1804.238,59.41,54.69,55.0,,35.39
73,1804.385,59.36,54.72,55.0,,35.37
74,1804.535,59.28,54.74,55.0,,35.37
75,1804.685,59.25,54.77,55.0,,35.35
76,1804.685,,,,43.74,
77,1804.837,59.19,54.8,55.0,,35.34
78,1804.986,59.13,54.82,55.0,,35.32
79,1805.138,59.02,54.85,55.0,,35.31
80,1805.285,58.97,54.87,55.0,,35.31
81,1805.285,,,,45.32,
82,1805.435,58.91,54.89,55.0,,35.3
83,1805.585,58.84,54.91,55.0,,35.3
84,1805.735,58.75,54.93,55.0,,35.26
85,1805.885,58.7,54.94,55.0,,35.26
86,1805.885,,,,46.5,
87,1806.035,58.64,54.96,55.0,,35.29
88,1806.185,58.55,54.97,55.0,,35.27
89,1806.337,58.5,54.99,55.0,,35.28
90,1806.486,58.4,55.0,55.0,,35.24
91,1806.486,,,,47.4,
92,1806.635,58.35,55.0,55.0,,35.25
93,1806.785,58.28,55.01,55.0,,35.25
94,1806.935,58.22,55.02,55.0,,35.23
95,1807.085,58.13,55.03,55.0,,35.22
96,1807.085,,,,48.64,
97,1807.235,58.1,55.03,55.0,,35.21
98,1807.385,58.05,55.04,55.0,,35.2
99,1807.535,57.99,55.05,55.0,,35.21
100,1807.685,57.92,55.05,55.0,,35.21
101,1807.685,,,,49.02,
102,1807.837,57.89,55.06,55.0,,35.19
103,1807.985,57.82,55.07,55.0,,35.17
104,1808.135,57.76,55.07,55.0,,35.15
105,1808.285,57.72,55.08,55.0,,35.18
106,1808.285,,,,50.32,
107,1808.435,57.64,55.08,55.0,,35.18
108,1808.585,57.59,55.08,55.0,,35.18
109,1808.737,57.51,55.08,55.0,,35.16
110,1808.886,57.48,55.08,55.0,,35.16
111,1808.886,,,,50.11,
112,1809.035,57.44,55.08,55.0,,35.15
113,1809.185,57.39,55.08,55.0,,35.14
114,1809.335,57.35,55.08,55.0,,35.14
115,1809.486,57.3,55.09,55.0,,35.13
116,1809.486,,,,50.76,
117,1809.636,57.27,55.09,55.0,,35.15
118,1809.785,57.22,55.09,55.0,,35.12
119,1809.936,57.17,55.09,55.0,,35.12
120,1810.086,57.15,55.09,55.0,,35.07
121,1810.086,,,,50.97,
122,1810.236,57.09,55.09,55.0,,35.11
123,1810.387,57.06,55.09,55.0,,35.11
124,1810.535,57.0,55.09,55.0,,35.07
125,1810.687,56.99,55.09,55.0,,35.07
126,1810.687,,,,51.38,
127,1810.836,56.97,55.09,55.0,,35.08
128,1810.986,56.92,55.1,55.0,,35.06
129,1811.136,56.93,55.1,55.0,,35.05
130,1811.286,56.9,55.1,55.0,,35.03
131,1811.286,,,,51.61,
132,1811.436,56.88,55.11,55.0,,35.07
133,1811.586,56.83,55.11,55.0,,35.07
134,1811.737,56.81,55.11,55.0,,35.06
135,1811.888,56.76,55.11,55.0,,35.06
136,1811.888,,,,51.95,
137,1812.036,56.72,55.11,55.0,,35.02
138,1812.186,56.67,55.11,55.0,,35.02
139,1812.335,56.63,55.11,55.0,,35.02
140,1812.485,56.61,55.1,55.0,,35.03
141,1812.485,,,,52.1,
142,1812.635,56.58,55.1,55.0,,35.01
143,1812.785,56.56,55.1,55.0,,35.01
144,1812.936,56.55,55.1,55.0,,34.99
145,1813.085,56.54,55.1,55.0,,35.0
146,1813.085,,,,52.34,
147,1813.235,56.52,55.1,55.0,,34.98
148,1813.386,56.5,55.1,55.0,,34.98
149,1813.535,56.5,55.1,55.0,,34.98
150,1813.685,56.47,55.11,55.0,,34.98
151,1813.707,,,,52.95,
152,1813.837,56.46,55.11,55.0,,35.0
153,1813.986,56.44,55.11,55.0,,34.97
154,1814.136,56.41,55.11,55.0,,34.97
155,1814.286,56.36,55.11,55.0,,34.97
156,1814.286,,,,52.63,
157,1814.436,56.33,55.11,55.0,,34.97
158,1814.586,56.31,55.1,55.0,,34.94
159,1814.736,56.28,55.1,55.0,,34.95
160,1814.923,56.24,55.09,55.0,,34.95
161,1814.923,,,,53.05,
162,1815.074,56.22,55.09,55.0,,34.95
163,1815.224,56.19,55.08,55.0,,34.93
164,1815.374,56.18,55.08,55.0,,34.92
165,1815.524,56.17,55.07,55.0,,34.9
166,1815.524,,,,52.89,
167,1815.675,56.12,55.07,55.0,,34.92
168,1815.823,56.12,55.06,55.0,,34.91
169,1815.974,56.12,55.06,55.0,,34.91
170,1816.123,56.1,55.06,55.0,,34.89
171,1816.123,,,,53.09,
172,1816.273,56.07,55.06,55.0,,34.9
173,1816.422,56.09,55.06,55.0,,34.89
174,1816.572,56.08,55.06,55.0,,34.89
175,1816.722,56.08,55.06,55.0,,34.89
176,1816.722,,,,52.99,
177,1816.872,56.07,55.06,55.0,,34.87
178,1817.022,56.06,55.06,55.0,,34.86
179,1817.172,56.01,55.06,55.0,,34.87
180,1817.322,56.01,55.06,55.0,,34.85
181,1817.322,,,,53.18,
182,1817.472,56.01,55.06,55.0,,34.85
183,1817.622,56.01,55.06,55.0,,34.85
184,1817.772,55.97,55.06,55.0,,34.84
185,1817.922,55.98,55.06,55.0,,34.85
186,1817.922,,,,53.13,
187,1818.072,55.96,55.06,55.0,,34.83
188,1818.222,55.94,55.05,55.0,,34.86
189,1818.372,55.93,55.05,55.0,,34.83
190,1818.522,55.9,55.05,55.0,,34.84
191,1818.522,,,,53.23,
192,1818.672,55.88,55.04,55.0,,34.82
193,1818.822,55.86,55.04,55.0,,34.82
194,1818.972,55.84,55.03,55.0,,34.84
195,1819.122,55.86,55.03,55.0,,34.82
196,1819.122,,,,53.22,
197,1819.272,55.84,55.03,55.0,,34.79
198,1819.422,55.84,55.02,55.0,,34.8
199,1819.572,55.83,55.02,55.0,,34.82
200,1819.722,55.83,55.02,55.0,,34.8
201,1819.722,,,,53.31,
202,1819.872,55.83,55.02,55.0,,34.76
203,1820.022,55.81,55.02,55.0,,34.79
204,1820.173,55.78,55.01,55.0,,34.78
205,1820.322,55.8,55.01,55.0,,34.77
206,1820.375,,,,53.39,
207,1820.474,55.78,55.01,55.0,,34.75
208,1820.624,55.79,55.01,55.0,,34.77
209,1820.772,55.77,55.01,55.0,,34.76
210,1820.922,55.79,55.01,55.0,,34.75
211,1820.922,,,,53.33,
212,1821.072,55.8,55.01,55.0,,34.75
213,1821.224,55.78,55.01,55.0,,34.75
214,1821.372,55.81,55.02,55.0,,34.73
215,1821.522,55.82,55.03,55.0,,34.74
216,1821.522,,,,53.55,
217,1821.673,55.83,55.03,55.0,,34.72
218,1821.822,55.8,55.03,55.0,,34.72
219,1821.972,55.8,55.04,55.0,,34.71
220,1822.122,55.78,55.03,55.0,,34.71
221,1822.122,,,,53.38,
222,1822.272,55.77,55.03,55.0,,34.71
223,1822.424,55.74,55.03,55.0,,34.72
224,1822.572,55.75,55.03,55.0,,34.72
225,1822.722,55.72,55.02,55.0,,34.72
226,1822.722,,,,53.57,
227,1822.874,55.67,55.02,55.0,,34.67
228,1823.022,55.69,55.01,55.0,,34.68
229,1823.174,55.68,55.01,55.0,,34.71
230,1823.322,55.71,55.01,55.0,,34.71
231,1823.322,,,,53.4,
232,1823.472,55.71,55.0,55.0,,34.69
233,1823.622,55.72,55.01,55.0,,34.69
234,1823.773,55.71,55.01,55.0,,34.66
235,1823.945,55.71,55.01,55.0,,34.67
236,1823.945,,,,53.48,
237,1824.096,55.73,55.01,55.0,,34.67
238,1824.246,55.72,55.01,55.0,,34.66
239,1824.397,55.73,55.02,55.0,,34.66
240,1824.548,55.73,55.02,55.0,,34.63
241,1824.548,,,,53.45,
242,1824.696,55.75,55.02,55.0,,34.61
243,1824.846,55.75,55.03,55.0,,34.64
244,1824.997,55.73,55.03,55.0,,34.65
245,1825.148,55.72,55.03,55.0,,34.63
246,1825.148,,,,53.54,
247,1825.298,55.74,55.04,55.0,,34.6
248,1825.446,55.72,55.04,55.0,,34.64
249,1825.595,55.7,55.03,55.0,,34.64
250,1825.745,55.72,55.03,55.0,,34.59
251,1825.745,,,,53.48,
252,1825.895,55.75,55.04,55.0,,34.61
253,1826.045,55.72,55.04,55.0,,34.61
254,1826.196,55.72,55.04,55.0,,34.59
255,1826.345,55.69,55.04,55.0,,34.58
256,1826.345,,,,53.52,
257,1826.496,55.69,55.03,55.0,,34.62
258,1826.646,55.68,55.03,55.0,,34.58
259,1826.798,55.66,55.03,55.0,,34.6
260,1826.948,55.63,55.02,55.0,,34.58
261,1827.03,,,,53.48,
262,1827.096,55.64,55.01,55.0,,34.56
263,1827.246,55.64,55.01,55.0,,34.58
264,1827.398,55.65,55.01,55.0,,34.59
265,1827.549,55.65,55.01,55.0,,34.57
266,1827.696,55.67,55.01,55.0,,34.57
267,1827.696,,,,53.54,
268,1827.846,55.68,55.01,55.0,,34.55
269,1827.995,55.67,55.01,55.0,,34.55
270,1828.145,55.66,55.01,55.0,,34.55
271,1828.297,55.65,55.01,55.0,,34.57
272,1828.297,,,,53.82,
273,1828.448,55.68,55.02,55.0,,34.54
274,1828.597,55.68,55.02,55.0,,34.54
275,1828.745,55.67,55.02,55.0,,34.53
276,1828.895,55.68,55.02,55.0,,34.51
277,1828.895,,,,53.54,
278,1829.045,55.68,55.02,55.0,,34.53
279,1829.196,55.7,55.03,55.0,,34.51
280,1829.345,55.69,55.03,55.0,,34.48
281,1829.496,55.67,55.03,55.0,,34.49
282,1829.496,,,,53.7,
283,1829.646,55.7,55.03,55.0,,34.52
284,1829.796,55.7,55.03,55.0,,34.49
285,1829.946,55.67,55.03,55.0,,34.5
286,1830.096,55.65,55.03,55.0,,34.48
287,1830.096,,,,53.56,
288,1830.247,55.67,55.03,55.0,,34.5
289,1830.396,55.64,55.03,55.0,,34.48
290,1830.547,55.65,55.02,55.0,,34.47
291,1830.696,55.66,55.02,55.0,,34.48
292,1830.696,,,,53.59,
293,1830.847,55.62,55.02,55.0,,34.47
294,1830.998,55.61,55.02,55.0,,34.48
295,1831.148,55.63,55.01,55.0,,34.46
296,1831.296,55.61,55.01,55.0,,34.47
297,1831.296,,,,53.58,
298,1831.447,55.6,55.01,55.0,,34.46
299,1831.598,55.58,55.0,55.0,,34.48
300,1831.747,55.63,55.0,55.0,,34.44
301,1831.898,55.61,55.0,55.0,,34.46
302,1831.898,,,,53.62,
303,1832.046,55.62,55.0,55.0,,34.45
304,1832.196,55.6,55.0,55.0,,34.45
305,1832.348,55.63,55.0,55.0,,34.45
306,1832.495,55.63,55.0,55.0,,34.43
307,1832.495,,,,53.58,
308,1832.646,55.63,55.01,55.0,,34.46
309,1832.796,55.67,55.01,55.0,,34.43
310,1832.946,55.65,55.01,55.0,,34.41
311,1833.096,55.65,55.01,55.0,,34.42
312,1833.096,,,,53.59,
313,1833.247,55.64,55.02,55.0,,34.39
314,1833.396,55.65,55.02,55.0,,34.4
315,1833.545,55.67,55.02,55.0,,34.37
316,1833.697,55.65,55.02,55.0,,34.38
317,1833.697,,,,53.57,
318,1833.846,55.66,55.02,55.0,,34.4
319,1833.997,55.65,55.02,55.0,,34.4
320,1834.145,55.69,55.03,55.0,,34.39
321,1834.295,55.69,55.03,55.0,,34.37
322,1834.295,,,,53.63,
323,1834.445,55.7,55.03,55.0,,34.39
324,1834.596,55.69,55.04,55.0,,34.38
325,1834.745,55.71,55.04,55.0,,34.35
326,1834.895,55.7,55.04,55.0,,34.37
327,1834.895,,,,54.25,
328,1835.045,55.7,55.05,55.0,,34.34
329,1835.196,55.69,55.05,55.0,,34.35
330,1835.346,55.66,55.04,55.0,,34.34
331,1835.496,55.64,55.04,55.0,,34.35
332,1835.496,,,,53.62,
333,1835.646,55.64,55.04,55.0,,34.34
334,1835.796,55.64,55.03,55.0,,34.35
335,1835.963,55.62,55.03,55.0,,34.36
336,1835.963,,,,53.79,
337,1836.113,55.61,55.02,55.0,,34.33
338,1836.263,55.61,55.02,55.0,,34.32
339,1836.413,55.62,55.02,55.0,,34.32
340,1836.562,55.6,55.01,55.0,,34.31
341,1836.562,,,,53.63,
342,1836.712,55.61,55.01,55.0,,34.33
343,1836.861,55.58,55.01,55.0,,34.33
344,1837.013,55.54,55.0,55.0,,34.31
345,1837.161,55.56,55.0,55.0,,34.29
346,1837.161,,,,53.69,
347,1837.311,55.58,54.99,55.0,,34.34
348,1837.463,55.56,54.99,55.0,,34.28
349,1837.611,55.59,54.99,55.0,,34.3
350,1837.763,55.59,54.99,55.0,,34.3
351,1837.763,,,,53.54,
352,1837.911,55.61,54.99,55.0,,34.3
353,1838.061,55.58,54.99,55.0,,34.3
354,1838.211,55.64,55.0,55.0,,34.3
355,1838.363,55.64,55.0,55.0,,34.29
356,1838.363,,,,53.68,
357,1838.511,55.64,55.0,55.0,,34.28
358,1838.661,55.64,55.01,55.0,,34.27
359,1838.813,55.62,55.01,55.0,,34.29
360,1838.961,55.64,55.01,55.0,,34.27
361,1838.961,,,,53.64,
362,1839.113,55.61,55.01,55.0,,34.23
363,1839.261,55.61,55.01,55.0,,34.28
364,1839.411,55.63,55.01,55.0,,34.27
365,1839.561,55.6,55.01,55.0,,34.24
366,1839.561,,,,53.63,
367,1839.711,55.62,55.01,55.0,,34.27
368,1839.861,55.65,55.01,55.0,,34.25
369,1840.012,55.59,55.01,55.0,,34.25
370,1840.161,55.62,55.01,55.0,,34.24
371,1840.161,,,,53.6,
372,1840.311,55.59,55.0,55.0,,34.24
373,1840.461,55.59,55.0,55.0,,34.23
374,1840.611,55.57,55.0,55.0,,34.24
375,1840.761,55.57,54.99,55.0,,34.25
376,1840.761,,,,53.63,
377,1840.911,55.59,54.99,55.0,,34.21
378,1841.061,55.58,54.99,55.0,,34.22
379,1841.211,55.57,54.99,55.0,,34.22
380,1841.361,55.57,54.98,55.0,,34.22
381,1841.432,,,,53.54,
382,1841.513,55.56,54.98,55.0,,34.22
383,1841.663,55.56,54.98,55.0,,34.22
384,1841.811,55.57,54.98,55.0,,34.2
385,1841.963,55.56,54.98,55.0,,34.22
386,1841.963,,,,53.63,
387,1842.111,55.57,54.98,55.0,,34.16
388,1842.261,55.57,54.98,55.0,,34.19
389,1842.411,55.59,54.98,55.0,,34.19
390,1842.562,55.59,54.98,55.0,,34.16
391,1842.562,,,,53.94,
392,1842.711,55.62,54.98,55.0,,34.19
393,1842.861,55.59,54.99,55.0,,34.19
394,1843.013,55.61,54.99,55.0,,34.18
395,1843.161,55.64,54.99,55.0,,34.17
396,1843.161,,,,53.58,
397,1843.311,55.65,55.0,55.0,,34.17
398,1843.461,55.64,55.0,55.0,,34.17
399,1843.611,55.65,55.01,55.0,,34.15
400,1843.763,55.65,55.01,55.0,,34.14
401,1843.763,,,,53.79,
402,1843.911,55.64,55.01,55.0,,34.15
403,1844.061,55.65,55.01,55.0,,34.15
404,1844.212,55.65,55.02,55.0,,34.12
405,1844.362,55.64,55.02,55.0,,34.13
406,1844.362,,,,53.62,
407,1844.512,55.65,55.02,55.0,,34.13
408,1844.662,55.66,55.02,55.0,,34.15
409,1844.812,55.64,55.02,55.0,,34.14
410,1844.996,55.66,55.02,55.0,,34.12
411,1844.996,,,,53.68,
412,1845.146,55.68,55.03,55.0,,34.14
413,1845.296,55.64,55.03,55.0,,34.12
414,1845.447,55.63,55.03,55.0,,34.12
415,1845.596,55.64,55.03,55.0,,34.13
416,1845.596,,,,53.6,
417,1845.746,55.62,55.02,55.0,,34.09
418,1845.897,55.6,55.02,55.0,,34.12
419,1846.046,55.57,55.01,55.0,,34.1
420,1846.196,55.58,55.01,55.0,,34.12
421,1846.196,,,,53.65,
422,1846.346,55.58,55.0,55.0,,34.09
423,1846.495,55.57,55.0,55.0,,34.1
424,1846.647,55.57,55.0,55.0,,34.1
425,1846.797,55.59,55.0,55.0,,34.1
426,1846.797,,,,53.6,
427,1846.947,55.61,55.0,55.0,,34.09
428,1847.096,55.6,55.0,55.0,,34.09
429,1847.246,55.62,55.0,55.0,,34.08
430,1847.396,55.59,55.0,55.0,,34.07
431,1847.396,,,,53.67,
432,1847.546,55.6,55.0,55.0,,34.07
433,1847.695,55.63,55.0,55.0,,34.07
434,1847.846,55.65,55.0,55.0,,34.06
435,1847.995,55.63,55.01,55.0,,34.05
436,1847.995,,,,53.64,
437,1848.145,55.63,55.01,55.0,,34.05
438,1848.296,55.59,55.01,55.0,,34.06
439,1848.445,55.6,55.0,55.0,,34.07
440,1848.597,55.62,55.0,55.0,,34.04
441,1848.597,,,,53.64,
442,1848.745,55.6,55.0,55.0,,34.04
443,1848.897,55.61,55.0,55.0,,34.04
444,1849.047,55.61,55.0,55.0,,34.08
445,1849.198,55.61,55.0,55.0,,34.05
446,1849.198,,,,54.36,
447,1849.345,55.59,55.0,55.0,,34.02
448,1849.497,55.59,55.0,55.0,,34.03
449,1849.645,55.6,55.0,55.0,,34.04
450,1849.796,55.58,55.0,55.0,,34.06
451,1849.796,,,,53.61,
452,1849.947,55.6,55.0,55.0,,34.02
453,1850.097,55.6,55.0,55.0,,34.02
454,1850.245,55.61,55.0,55.0,,34.0
455,1850.395,55.59,55.0,55.0,,34.03
456,1850.395,,,,53.83,
457,1850.546,55.61,55.0,55.0,,34.0
458,1850.694,55.62,55.0,55.0,,34.01
459,1850.844,55.59,55.0,55.0,,34.01
460,1850.994,55.63,55.0,55.0,,33.99
461,1850.994,,,,53.66,
462,1851.144,55.63,55.0,55.0,,33.98
463,1851.294,55.59,55.0,55.0,,34.0
464,1851.444,55.63,55.0,55.0,,33.98
465,1851.594,55.62,55.0,55.0,,34.0
466,1851.594,,,,53.77,
467,1851.744,55.61,55.0,55.0,,34.0
468,1851.894,55.61,55.0,55.0,,34.0
469,1852.046,55.64,55.01,55.0,,33.97
470,1852.194,55.62,55.01,55.0,,33.98
471,1852.194,,,,53.63,
472,1852.344,55.64,55.01,55.0,,33.96
473,1852.496,55.64,55.01,55.0,,33.97
474,1852.644,55.63,55.01,55.0,,33.97
475,1852.794,55.64,55.01,55.0,,33.95
476,1852.794,,,,53.73,
477,1852.944,55.64,55.02,55.0,,33.95
478,1853.094,55.66,55.02,55.0,,33.96
479,1853.244,55.66,55.02,55.0,,33.95
480,1853.394,55.64,55.02,55.0,,33.95
481,1853.394,,,,53.66,
482,1853.544,55.66,55.02,55.0,,33.93
483,1853.694,55.64,55.03,55.0,,33.95
484,1853.844,55.64,55.02,55.0,,33.95
485,1853.996,55.64,55.03,55.0,,33.95
486,1853.996,,,,53.7,
487,1854.144,55.63,55.02,55.0,,33.97
488,1854.294,55.62,55.02,55.0,,33.93
489,1854.446,55.61,55.02,55.0,,33.94
490,1854.594,55.61,55.02,55.0,,33.93
491,1854.71,,,,53.6,
492,1854.744,55.62,55.01,55.0,,33.94
493,1854.896,55.57,55.01,55.0,,33.93
494,1855.044,55.63,55.01,55.0,,33.94
495,1855.194,55.62,55.01,55.0,,33.91
496,1855.194,,,,53.65,
497,1855.344,55.64,55.01,55.0,,33.93
498,1855.494,55.63,55.01,55.0,,33.92
499,1855.646,55.63,55.01,55.0,,33.9
500,1855.796,55.63,55.01,55.0,,33.9
501,1855.816,,,,54.25,
502,1855.944,55.62,55.01,55.0,,33.89
503,1856.094,55.61,55.01,55.0,,33.9
504,1856.244,55.63,55.01,55.0,,33.89
505,1856.394,55.6,55.01,55.0,,33.89
506,1856.394,,,,53.66,
507,1856.544,55.6,55.01,55.0,,33.89
508,1856.694,55.63,55.01,55.0,,33.89
509,1856.844,55.6,55.01,55.0,,33.88
510,1856.995,55.61,55.01,55.0,,33.88
511,1856.995,,,,53.82,
512,1857.158,55.62,55.01,55.0,,33.88
513,1857.31,55.61,55.01,55.0,,33.89
514,1857.458,55.58,55.0,55.0,,33.89
515,1857.608,55.6,55.0,55.0,,33.88
516,1857.608,,,,53.68,
517,1857.76,55.53,54.99,55.0,,33.89
518,1857.908,55.59,54.99,55.0,,33.86
519,1858.058,55.57,54.99,55.0,,33.86
520,1858.208,55.56,54.99,55.0,,33.9
521,1858.208,,,,53.73,
522,1858.358,55.61,54.99,55.0,,33.86
523,1858.508,55.57,54.99,55.0,,33.84
524,1858.658,55.61,54.99,55.0,,33.85
525,1858.81,55.62,54.99,55.0,,33.85
526,1858.81,,,,53.63,
527,1858.958,55.62,55.0,55.0,,33.84
528,1859.108,55.63,55.0,55.0,,33.84
529,1859.258,55.6,55.0,55.0,,33.84
530,1859.408,55.6,55.0,55.0,,33.82
531,1859.408,,,,53.7,
532,1859.558,55.61,55.0,55.0,,33.83
533,1859.708,55.6,55.0,55.0,,33.82
534,1859.858,55.6,55.0,55.0,,33.82
535,1860.008,55.58,55.0,55.0,,33.83
536,1860.008,,,,53.64,
537,1860.158,55.59,54.99,55.0,,33.81
538,1860.308,55.6,54.99,55.0,,33.82
539,1860.46,55.6,54.99,55.0,,33.81
540,1860.61,55.6,55.0,55.0,,33.81
541,1860.61,,,,53.69,
542,1860.758,55.61,55.0,55.0,,33.82
543,1860.908,55.6,55.0,55.0,,33.82
544,1861.06,55.6,55.0,55.0,,33.81
545,1861.209,55.6,55.0,55.0,,33.8
546,1861.209,,,,53.65,
547,1861.36,55.58,54.99,55.0,,33.82
548,1861.509,55.57,54.99,55.0,,33.8
549,1861.659,55.58,54.99,55.0,,33.81
550,1861.81,55.58,54.99,55.0,,33.8
551,1861.81,,,,53.68,
552,1861.959,55.58,54.99,55.0,,33.79
553,1862.109,55.58,54.99,55.0,,33.78
554,1862.259,55.61,54.99,55.0,,33.78
555,1862.409,55.58,54.99,55.0,,33.78
556,1862.559,55.6,54.99,55.0,,33.77
557,1862.559,,,,53.9,
558,1862.71,55.57,54.99,55.0,,33.76
559,1862.859,55.59,54.99,55.0,,33.77
560,1863.008,55.59,54.99,55.0,,33.77
561,1863.008,,,,53.68,
562,1863.16,55.6,54.99,55.0,,33.77
563,1863.309,55.6,54.99,55.0,,33.76
564,1863.459,55.63,54.99,55.0,,33.75
565,1863.609,55.65,55.0,55.0,,33.77
566,1863.759,55.62,55.0,55.0,,33.75
567,1863.759,,,,54.01,
568,1863.909,55.6,55.0,55.0,,33.74
569,1864.059,55.62,55.0,55.0,,33.77
570,1864.21,55.61,55.0,55.0,,33.77
571,1864.21,,,,53.68,
572,1864.36,55.63,55.01,55.0,,33.75
573,1864.509,55.65,55.01,55.0,,33.76
574,1864.659,55.64,55.01,55.0,,33.74
575,1864.81,55.61,55.01,55.0,,33.75
576,1864.961,55.67,55.01,55.0,,33.72
577,1864.961,,,,53.8,
578,1865.109,55.64,55.02,55.0,,33.73
579,1865.259,55.64,55.02,55.0,,33.73
580,1865.409,55.65,55.02,55.0,,33.69
581,1865.559,55.65,55.02,55.0,,33.72
582,1865.559,,,,53.67,
583,1865.709,55.63,55.02,55.0,,33.74
584,1865.86,55.63,55.02,55.0,,33.71
585,1866.009,55.64,55.02,55.0,,33.73
586,1866.159,55.64,55.02,55.0,,33.71
587,1866.159,,,,53.76,
588,1866.309,55.65,55.02,55.0,,33.73
589,1866.46,55.65,55.02,55.0,,33.71
590,1866.61,55.67,55.02,55.0,,33.71
