,timeSinceBoot,PCR Temp,PCR Modeled TempC,PCR Target TempC,PCR Thermocouple TempC,PCR HeatSink TempC
0,105.094,35.92,35.82,55.0,,35.93
1,105.143,,,,28.38,
2,105.244,35.91,35.82,55.0,,35.92
3,105.394,36.06,35.83,55.0,,35.89
4,105.544,36.55,35.89,55.0,,35.84
5,105.694,37.38,36.03,55.0,,35.73
6,105.778,,,,28.39,
7,105.844,38.5,36.27,55.0,,35.66
8,105.993,39.9,36.62,55.0,,35.55
9,106.143,41.65,37.09,55.0,,35.43
10,106.293,43.22,37.65,55.0,,35.31
11,106.371,,,,28.47,
12,106.443,44.81,38.3,55.0,,35.2
13,106.593,46.4,39.01,55.0,,35.09
14,106.744,47.97,39.78,55.0,,34.96
15,106.893,49.61,40.61,55.0,,34.88
16,106.967,,,,30.06,
17,107.043,51.54,41.49,55.0,,34.75
18,107.193,53.1,42.39,55.0,,34.66
19,107.343,54.65,43.32,55.0,,34.59
20,107.494,56.18,44.28,55.0,,34.5
21,107.494,,,,30.06,
22,107.644,57.99,45.26,55.0,,34.4
23,107.794,59.55,46.25,55.0,,34.34
24,107.943,60.99,47.25,55.0,,34.29
25,108.094,62.43,48.25,55.0,,34.22
26,108.094,,,,30.74,
27,108.243,64.1,49.26,55.0,,34.16
28,108.393,65.53,50.27,55.0,,34.09
29,108.549,66.84,51.27,55.0,,34.04
30,108.699,68.38,52.28,55.0,,34.0
31,108.699,,,,31.32,
32,108.849,69.6,53.26,55.0,,33.96
33,108.999,70.45,54.21,55.0,,33.96
34,109.149,70.73,55.05,55.0,,34.05
35,109.299,70.54,55.74,55.0,,34.21
36,109.299,,,,33.54,
37,109.454,69.8,56.27,55.0,,34.5
38,109.593,69.0,56.63,55.0,,34.77
39,109.743,67.97,56.84,55.0,,35.06
40,109.895,66.74,56.9,55.0,,35.4
41,109.962,,,,35.91,
42,110.042,65.81,56.88,55.0,,35.6
43,110.192,64.98,56.78,55.0,,35.76
44,110.342,64.28,56.64,55.0,,35.88
45,110.492,63.55,56.48,55.0,,35.98
46,110.492,,,,38.72,
47,110.642,63.05,56.31,55.0,,36.03
48,110.823,62.58,56.14,55.0,,36.05
49,110.968,62.02,55.96,55.0,,36.1
50,111.121,61.65,55.8,55.0,,36.11
51,111.121,,,,40.2,
52,111.269,61.33,55.64,55.0,,36.11
53,111.418,60.95,55.49,55.0,,36.12
54,111.57,60.69,55.36,55.0,,36.1
55,111.718,60.43,55.24,55.0,,36.11
56,111.718,,,,41.37,
57,111.87,60.19,55.13,55.0,,36.09
58,112.018,59.94,55.03,55.0,,36.08
59,112.168,59.74,54.94,55.0,,36.06
60,112.318,59.56,54.87,55.0,,36.06
61,112.318,,,,42.36,
62,112.468,59.38,54.79,55.0,,36.04
63,112.618,59.18,54.73,55.0,,36.01
64,112.768,59.01,54.67,55.0,,36.01
65,112.918,58.86,54.62,55.0,,35.98
66,112.918,,,,43.31,
67,113.068,58.73,54.57,55.0,,35.97
68,113.218,58.58,54.53,55.0,,35.96
69,113.368,58.46,54.5,55.0,,35.92
70,113.518,58.35,54.47,55.0,,35.92
71,113.518,,,,44.14,
72,113.668,58.23,54.44,55.0,,35.89
73,113.818,58.12,54.42,55.0,,35.86
74,113.969,58.02,54.4,55.0,,35.85
75,114.118,57.95,54.38,55.0,,35.84
76,114.118,,,,44.85,
77,114.268,57.9,54.37,55.0,,35.83
78,114.418,57.81,54.37,55.0,,35.81
79,114.568,57.74,54.36,55.0,,35.78
80,114.72,57.68,54.36,55.0,,35.77
81,114.72,,,,45.49,
82,114.869,57.65,54.36,55.0,,35.75
83,115.018,57.6,54.37,55.0,,35.73
84,115.168,57.55,54.38,55.0,,35.72
85,115.318,57.52,54.39,55.0,,35.68
86,115.318,,,,46.19,
87,115.468,57.47,54.4,55.0,,35.68
88,115.618,57.43,54.41,55.0,,35.66
89,115.77,57.41,54.42,55.0,,35.65
90,115.919,57.38,54.44,55.0,,35.63
91,115.951,,,,47.16,
92,116.07,57.34,54.45,55.0,,35.63
93,116.218,57.32,54.47,55.0,,35.59
94,116.369,57.3,54.49,55.0,,35.59
95,116.518,57.29,54.51,55.0,,35.56
96,116.518,,,,47.38,
97,116.668,57.27,54.53,55.0,,35.55
98,116.818,57.22,54.54,55.0,,35.54
99,116.968,57.21,54.56,55.0,,35.53
100,117.119,57.19,54.58,55.0,,35.51
101,117.119,,,,48.38,
102,117.269,57.15,54.6,55.0,,35.5
103,117.418,57.14,54.62,55.0,,35.49
104,117.569,57.11,54.64,55.0,,35.47
105,117.718,57.09,54.65,55.0,,35.44
106,117.718,,,,48.27,
107,117.87,57.06,54.67,55.0,,35.45
108,118.018,57.04,54.69,55.0,,35.44
109,118.169,57.03,54.7,55.0,,35.43
110,118.318,57.0,54.72,55.0,,35.42
111,118.318,,,,48.81,
112,118.468,56.97,54.73,55.0,,35.41
113,118.618,56.94,54.75,55.0,,35.4
114,118.768,56.91,54.76,55.0,,35.39
115,118.918,56.89,54.77,55.0,,35.38
116,118.918,,,,49.02,
117,119.068,56.88,54.78,55.0,,35.37
118,119.218,56.85,54.8,55.0,,35.36
119,119.368,56.84,54.81,55.0,,35.35
120,119.518,56.81,54.82,55.0,,35.34
121,119.518,,,,49.4,
122,119.669,56.78,54.83,55.0,,35.32
123,119.818,56.77,54.84,55.0,,35.31
124,119.968,56.74,54.85,55.0,,35.29
125,120.118,56.73,54.86,55.0,,35.29
126,120.118,,,,49.63,
127,120.268,56.69,54.87,55.0,,35.27
128,120.419,56.67,54.88,55.0,,35.26
129,120.568,56.65,54.88,55.0,,35.26
130,120.718,56.63,54.89,55.0,,35.25
131,120.718,,,,49.87,
132,120.868,56.61,54.9,55.0,,35.23
133,121.018,56.6,54.91,55.0,,35.23
134,121.168,56.58,54.91,55.0,,35.22
135,121.318,56.56,54.92,55.0,,35.21
136,121.318,,,,50.11,
137,121.468,56.55,54.93,55.0,,35.21
138,121.618,56.53,54.93,55.0,,35.19
139,121.768,56.53,54.94,55.0,,35.19
140,121.919,56.48,54.95,55.0,,35.18
141,121.919,,,,50.4,
142,122.069,56.48,54.95,55.0,,35.18
143,122.219,56.44,54.96,55.0,,35.16
144,122.369,56.42,54.96,55.0,,35.16
145,122.519,56.38,54.96,55.0,,35.15
146,122.519,,,,50.49,
147,122.67,56.35,54.96,55.0,,35.14
148,122.845,56.33,54.96,55.0,,35.14
149,122.995,56.31,54.96,55.0,,35.13
150,123.145,56.27,54.96,55.0,,35.12
151,123.145,,,,50.66,
152,123.295,56.26,54.96,55.0,,35.1
153,123.445,56.25,54.96,55.0,,35.1
154,123.595,56.24,54.96,55.0,,35.09
155,123.745,56.22,54.96,55.0,,35.08
156,123.766,,,,50.86,
157,123.895,56.21,54.96,55.0,,35.08
158,124.045,56.2,54.96,55.0,,35.07
159,124.195,56.19,54.97,55.0,,35.07
160,124.345,56.18,54.97,55.0,,35.06
161,124.345,,,,50.98,
162,124.495,56.17,54.97,55.0,,35.04
163,124.646,56.17,54.98,55.0,,35.03
164,124.795,56.15,54.98,55.0,,35.03
165,124.945,56.13,54.98,55.0,,35.0
166,124.945,,,,51.79,
167,125.095,56.14,54.99,55.0,,35.0
168,125.245,56.13,54.99,55.0,,34.99
169,125.395,56.13,54.99,55.0,,34.97
170,125.546,56.11,55.0,55.0,,34.98
171,125.546,,,,51.26,
172,125.695,56.1,55.0,55.0,,34.98
173,125.845,56.1,55.01,55.0,,34.97
174,125.995,56.08,55.01,55.0,,34.96
175,126.145,56.08,55.01,55.0,,34.96
176,126.145,,,,51.56,
177,126.295,56.07,55.01,55.0,,34.94
178,126.445,56.06,55.02,55.0,,34.92
179,126.595,56.05,55.02,55.0,,34.92
180,126.745,56.04,55.02,55.0,,34.92
181,126.745,,,,51.45,
182,126.895,56.02,55.02,55.0,,34.91
183,127.045,56.0,55.02,55.0,,34.93
184,127.195,55.99,55.02,55.0,,34.9
185,127.345,55.98,55.02,55.0,,34.89
186,127.345,,,,51.61,
187,127.495,55.97,55.02,55.0,,34.88
188,127.645,55.97,55.02,55.0,,34.87
189,127.795,55.95,55.02,55.0,,34.86
190,127.945,55.93,55.02,55.0,,34.85
191,127.945,,,,51.62,
192,128.096,55.92,55.02,55.0,,34.86
193,128.246,55.91,55.02,55.0,,34.84
194,128.396,55.91,55.02,55.0,,34.83
195,128.545,55.91,55.02,55.0,,34.82
196,128.545,,,,51.73,
197,128.695,55.9,55.02,55.0,,34.81
198,128.845,55.9,55.02,55.0,,34.81
199,128.995,55.89,55.02,55.0,,34.8
200,129.145,55.88,55.02,55.0,,34.8
201,129.145,,,,51.77,
202,129.295,55.87,55.02,55.0,,34.79
203,129.445,55.87,55.02,55.0,,34.78
204,129.595,55.87,55.02,55.0,,34.78
205,129.745,55.85,55.02,55.0,,34.76
206,129.745,,,,51.84,
207,129.895,55.85,55.02,55.0,,34.76
208,130.045,55.83,55.02,55.0,,34.76
209,130.195,55.82,55.02,55.0,,34.76
210,130.345,55.8,55.01,55.0,,34.74
211,130.345,,,,51.79,
212,130.495,55.8,55.01,55.0,,34.73
213,130.645,55.8,55.01,55.0,,34.72
214,130.795,55.79,55.01,55.0,,34.72
215,130.945,55.78,55.01,55.0,,34.71
216,130.945,,,,51.96,
217,131.095,55.78,55.01,55.0,,34.71
218,131.245,55.79,55.01,55.0,,34.7
219,131.395,55.79,55.01,55.0,,34.69
220,131.545,55.78,55.01,55.0,,34.68
221,131.548,,,,52.44,
222,131.695,55.79,55.01,55.0,,34.68
223,131.867,55.79,55.02,55.0,,34.66
224,132.017,55.78,55.02,55.0,,34.66
225,132.167,55.75,55.01,55.0,,34.65
226,132.167,,,,52.04,
227,132.317,55.77,55.01,55.0,,34.65
228,132.467,55.76,55.01,55.0,,34.64
229,132.618,55.75,55.01,55.0,,34.64
230,132.767,55.75,55.01,55.0,,34.63
231,132.767,,,,52.58,
232,132.917,55.75,55.01,55.0,,34.63
233,133.067,55.74,55.01,55.0,,34.61
234,133.217,55.73,55.01,55.0,,34.6
235,133.367,55.74,55.01,55.0,,34.6
236,133.367,,,,52.11,
237,133.517,55.73,55.01,55.0,,34.58
238,133.667,55.73,55.01,55.0,,34.58
239,133.818,55.72,55.01,55.0,,34.58
240,133.967,55.72,55.01,55.0,,34.57
241,133.967,,,,52.37,
242,134.117,55.73,55.02,55.0,,34.56
243,134.267,55.72,55.01,55.0,,34.55
244,134.417,55.72,55.02,55.0,,34.55
245,134.567,55.72,55.02,55.0,,34.55
246,134.567,,,,52.15,
247,134.717,55.71,55.02,55.0,,34.54
248,134.868,55.71,55.02,55.0,,34.53
249,135.017,55.69,55.01,55.0,,34.53
250,135.167,55.72,55.02,55.0,,34.52
251,135.167,,,,52.35,
252,135.317,55.72,55.02,55.0,,34.5
253,135.467,55.71,55.02,55.0,,34.5
254,135.617,55.71,55.02,55.0,,34.49
255,135.767,55.71,55.02,55.0,,34.48
256,135.767,,,,52.27,
257,135.917,55.7,55.02,55.0,,34.48
258,136.068,55.69,55.02,55.0,,34.47
259,136.217,55.69,55.02,55.0,,34.46
260,136.367,55.69,55.02,55.0,,34.46
261,136.367,,,,52.34,
262,136.517,55.68,55.02,55.0,,34.45
263,136.669,55.67,55.01,55.0,,34.44
264,136.817,55.67,55.01,55.0,,34.43
265,136.967,55.67,55.01,55.0,,34.44
266,136.967,,,,52.32,
267,137.117,55.66,55.01,55.0,,34.42
268,137.267,55.67,55.01,55.0,,34.4
269,137.417,55.67,55.01,55.0,,34.4
270,137.567,55.67,55.01,55.0,,34.39
271,137.567,,,,52.39,
272,137.717,55.65,55.01,55.0,,34.39
273,137.867,55.66,55.01,55.0,,34.39
274,138.017,55.65,55.01,55.0,,34.38
275,138.167,55.65,55.01,55.0,,34.37
276,138.167,,,,52.31,
277,138.317,55.65,55.01,55.0,,34.37
278,138.467,55.65,55.01,55.0,,34.36
279,138.617,55.66,55.01,55.0,,34.36
280,138.767,55.66,55.01,55.0,,34.34
281,138.767,,,,52.43,
282,138.917,55.65,55.01,55.0,,34.34
283,139.067,55.67,55.01,55.0,,34.34
284,139.217,55.66,55.01,55.0,,34.32
285,139.217,,,,52.58,
286,139.367,55.65,55.01,55.0,,34.32
287,139.517,55.66,55.01,55.0,,34.31
288,139.667,55.65,55.01,55.0,,34.31
289,139.817,55.65,55.01,55.0,,34.3
290,139.967,55.66,55.01,55.0,,34.3
291,139.967,,,,52.39,
292,140.117,55.65,55.01,55.0,,34.29
293,140.267,55.65,55.01,55.0,,34.28
294,140.417,55.65,55.01,55.0,,34.28
295,140.567,55.65,55.01,55.0,,34.27
296,140.567,,,,53.02,
297,140.717,55.66,55.01,55.0,,34.27
298,140.867,55.66,55.01,55.0,,34.27
299,141.017,55.66,55.01,55.0,,34.26
300,141.167,55.66,55.02,55.0,,34.25
301,141.167,,,,52.5,
302,141.317,55.65,55.02,55.0,,34.25
303,141.467,55.65,55.01,55.0,,34.24
304,141.619,55.65,55.02,55.0,,34.24
305,141.767,55.64,55.01,55.0,,34.23
306,141.767,,,,52.59,
307,141.917,55.65,55.01,55.0,,34.22
308,142.067,55.64,55.01,55.0,,34.21
309,142.217,55.64,55.01,55.0,,34.22
310,142.367,55.63,55.01,55.0,,34.2
311,142.367,,,,52.53,
312,142.517,55.64,55.01,55.0,,34.21
313,142.668,55.64,55.01,55.0,,34.2
314,142.817,55.64,55.01,55.0,,34.18
315,142.967,55.63,55.01,55.0,,34.16
316,142.967,,,,52.61,
317,143.117,55.63,55.01,55.0,,34.17
318,143.267,55.63,55.01,55.0,,34.17
319,143.417,55.63,55.01,55.0,,34.16
320,143.567,55.63,55.01,55.0,,34.16
321,143.567,,,,52.51,
322,143.717,55.61,55.01,55.0,,34.15
323,143.89,55.64,55.01,55.0,,34.14
324,144.04,55.64,55.01,55.0,,34.13
325,144.19,55.64,55.01,55.0,,34.12
326,144.19,,,,52.71,
327,144.34,55.63,55.01,55.0,,34.13
328,144.49,55.64,55.01,55.0,,34.13
329,144.64,55.64,55.01,55.0,,34.11
330,144.79,55.62,55.01,55.0,,34.1
331,144.79,,,,52.6,
332,144.942,55.63,55.01,55.0,,34.1
333,145.09,55.63,55.01,55.0,,34.1
334,145.24,55.62,55.01,55.0,,34.07
335,145.24,,,,52.59,
336,145.39,55.62,55.01,55.0,,34.07
337,145.541,55.63,55.01,55.0,,34.07
338,145.69,55.63,55.01,55.0,,34.07
339,145.84,55.63,55.01,55.0,,34.05
340,145.99,55.62,55.01,55.0,,34.05
341,145.99,,,,52.59,
342,146.14,55.61,55.01,55.0,,34.04
343,146.291,55.61,55.01,55.0,,34.03
344,146.441,55.62,55.01,55.0,,34.03
345,146.441,,,,52.61,
346,146.592,55.63,55.01,55.0,,34.03
347,146.741,55.63,55.01,55.0,,34.03
348,146.891,55.61,55.01,55.0,,34.01
349,147.041,55.63,55.01,55.0,,34.01
350,147.041,,,,52.62,
351,147.191,55.63,55.01,55.0,,34.0
352,147.341,55.62,55.01,55.0,,34.0
353,147.491,55.61,55.01,55.0,,33.99
354,147.641,55.62,55.01,55.0,,33.98
355,147.791,55.61,55.01,55.0,,33.98
356,147.791,,,,52.57,
357,147.941,55.61,55.01,55.0,,33.97
358,148.091,55.61,55.0,55.0,,33.96
359,148.242,55.61,55.0,55.0,,33.96
360,148.392,55.6,55.0,55.0,,33.96
361,148.392,,,,53.03,
362,148.542,55.62,55.0,55.0,,33.95
363,148.692,55.61,55.0,55.0,,33.94
364,148.842,55.62,55.0,55.0,,33.94
365,148.992,55.62,55.0,55.0,,33.93
366,148.992,,,,52.7,
367,149.142,55.62,55.0,55.0,,33.92
368,149.292,55.62,55.01,55.0,,33.92
369,149.442,55.62,55.01,55.0,,33.92
370,149.592,55.62,55.01,55.0,,33.92
371,149.592,,,,52.77,
372,149.742,55.62,55.01,55.0,,33.91
373,149.892,55.62,55.01,55.0,,33.89
374,150.042,55.62,55.01,55.0,,33.91
375,150.193,55.6,55.01,55.0,,33.89
376,150.193,,,,52.69,
377,150.342,55.62,55.01,55.0,,33.89
378,150.493,55.62,55.01,55.0,,33.88
379,150.642,55.6,55.0,55.0,,33.87
380,150.792,55.62,55.01,55.0,,33.87
381,150.792,,,,52.81,
382,150.942,55.61,55.01,55.0,,33.86
383,151.092,55.61,55.01,55.0,,33.86
384,151.242,55.63,55.01,55.0,,33.85
385,151.392,55.62,55.01,55.0,,33.85
386,151.392,,,,52.63,
387,151.542,55.63,55.01,55.0,,33.85
388,151.692,55.62,55.01,55.0,,33.84
389,151.842,55.62,55.01,55.0,,33.83
390,151.992,55.62,55.01,55.0,,33.83
391,151.992,,,,52.78,
392,152.142,55.62,55.01,55.0,,33.82
393,152.292,55.6,55.01,55.0,,33.81
394,152.442,55.61,55.01,55.0,,33.81
395,152.592,55.6,55.0,55.0,,33.81
396,152.592,,,,52.71,
397,152.742,55.6,55.0,55.0,,33.81
398,152.892,55.61,55.0,55.0,,33.8
399,153.043,55.61,55.0,55.0,,33.79
400,153.192,55.61,55.0,55.0,,33.79
401,153.192,,,,52.77,
402,153.342,55.6,55.0,55.0,,33.78
403,153.492,55.61,55.0,55.0,,33.78
404,153.642,55.6,55.0,55.0,,33.76
405,153.792,55.61,55.0,55.0,,33.75
406,153.792,,,,52.74,
407,153.942,55.6,55.0,55.0,,33.75
408,154.092,55.61,55.0,55.0,,33.76
409,154.242,55.6,55.0,55.0,,33.73
410,154.392,55.61,55.0,55.0,,33.73
411,154.392,,,,52.76,
412,154.542,55.62,55.0,55.0,,33.74
413,154.692,55.63,55.0,55.0,,33.73
414,154.842,55.62,55.01,55.0,,33.72
415,154.993,55.64,55.01,55.0,,33.72
416,154.993,,,,53.0,
417,155.142,55.63,55.01,55.0,,33.72
418,155.292,55.63,55.01,55.0,,33.71
419,155.442,55.62,55.01,55.0,,33.7
420,155.592,55.63,55.01,55.0,,33.7
421,155.592,,,,52.78,
422,155.742,55.63,55.01,55.0,,33.7
423,155.892,55.63,55.01,55.0,,33.7
424,156.042,55.62,55.01,55.0,,33.68
425,156.192,55.63,55.01,55.0,,33.68
426,156.192,,,,53.26,
427,156.342,55.62,55.01,55.0,,33.66
428,156.492,55.62,55.01,55.0,,33.68
429,156.642,55.63,55.01,55.0,,33.67
430,156.792,55.62,55.01,55.0,,33.67
431,156.792,,,,52.82,
432,156.942,55.63,55.01,55.0,,33.66
433,157.092,55.62,55.01,55.0,,33.66
434,157.242,55.62,55.01,55.0,,33.65
435,157.392,55.62,55.01,55.0,,33.66
436,157.392,,,,52.96,
437,157.542,55.63,55.01,55.0,,33.66
438,157.692,55.6,55.01,55.0,,33.64
439,157.843,55.6,55.01,55.0,,33.65
440,157.992,55.59,55.0,55.0,,33.63
441,157.992,,,,52.81,
442,158.143,55.6,55.0,55.0,,33.62
443,158.292,55.59,55.0,55.0,,33.62
444,158.442,55.6,55.0,55.0,,33.61
445,158.592,55.59,55.0,55.0,,33.61
446,158.592,,,,52.92,
447,158.742,55.6,55.0,55.0,,33.6
448,158.893,55.61,55.0,55.0,,33.59
449,159.042,55.62,55.0,55.0,,33.59
450,159.193,55.61,55.0,55.0,,33.58
451,159.193,,,,52.83,
452,159.342,55.61,55.0,55.0,,33.57
453,159.493,55.61,55.0,55.0,,33.55
454,159.642,55.62,55.0,55.0,,33.57
455,159.792,55.63,55.01,55.0,,33.55
456,159.792,,,,52.88,
457,159.942,55.62,55.01,55.0,,33.55
458,160.092,55.61,55.01,55.0,,33.54
459,160.242,55.61,55.01,55.0,,33.53
460,160.392,55.6,55.0,55.0,,33.53
461,160.392,,,,52.83,
462,160.542,55.61,55.0,55.0,,33.52
463,160.692,55.6,55.0,55.0,,33.52
464,160.842,55.61,55.0,55.0,,33.52
465,160.842,,,,52.88,
466,160.992,55.63,55.0,55.0,,33.52
467,161.142,55.61,55.0,55.0,,33.5
468,161.292,55.62,55.0,55.0,,33.51
469,161.442,55.6,55.0,55.0,,33.49
470,161.592,55.61,55.0,55.0,,33.5
471,161.592,,,,52.81,
472,161.742,55.61,55.0,55.0,,33.5
473,161.892,55.61,55.0,55.0,,33.49
474,162.042,55.61,55.0,55.0,,33.48
475,162.192,55.61,55.0,55.0,,33.47
476,162.192,,,,52.82,
477,162.342,55.62,55.0,55.0,,33.48
478,162.492,55.61,55.0,55.0,,33.47
479,162.642,55.6,55.0,55.0,,33.45
480,162.642,,,,53.23,
481,162.792,55.6,55.0,55.0,,33.44
482,162.942,55.62,55.0,55.0,,33.45
483,163.092,55.61,55.0,55.0,,33.44
484,163.242,55.62,55.0,55.0,,33.44
485,163.242,,,,52.93,
486,163.392,55.62,55.0,55.0,,33.44
487,163.542,55.61,55.0,55.0,,33.43
488,163.692,55.62,55.01,55.0,,33.42
489,163.842,55.63,55.01,55.0,,33.42
490,163.897,,,,53.48,
491,163.992,55.62,55.01,55.0,,33.41
492,164.143,55.62,55.01,55.0,,33.42
493,164.292,55.62,55.01,55.0,,33.41
494,164.442,55.63,55.01,55.0,,33.41
495,164.442,,,,52.92,
496,164.592,55.63,55.01,55.0,,33.4
497,164.742,55.62,55.01,55.0,,33.4
498,164.913,55.61,55.01,55.0,,33.4
499,165.062,55.63,55.01,55.0,,33.39
500,165.065,,,,53.21,
501,165.212,55.62,55.01,55.0,,33.39
502,165.362,55.61,55.01,55.0,,33.38
503,165.512,55.61,55.01,55.0,,33.37
504,165.662,55.62,55.01,55.0,,33.37
505,165.662,,,,52.92,
506,165.812,55.61,55.01,55.0,,33.37
507,165.962,55.62,55.01,55.0,,33.36
508,166.112,55.61,55.01,55.0,,33.37
509,166.262,55.6,55.0,55.0,,33.35
510,166.262,,,,53.08,
511,166.412,55.61,55.0,55.0,,33.35
512,166.563,55.59,55.0,55.0,,33.34
513,166.712,55.61,55.0,55.0,,33.34
514,166.862,55.61,55.0,55.0,,33.32
515,166.862,,,,52.92,
516,167.012,55.62,55.0,55.0,,33.33
517,167.162,55.61,55.0,55.0,,33.33
518,167.313,55.61,55.0,55.0,,33.33
519,167.462,55.61,55.0,55.0,,33.32
520,167.462,,,,53.01,
521,167.612,55.6,55.0,55.0,,33.32
522,167.762,55.6,55.0,55.0,,33.31
523,167.912,55.6,55.0,55.0,,33.32
524,168.062,55.6,55.0,55.0,,33.3
525,168.062,,,,52.89,
526,168.212,55.61,55.0,55.0,,33.31
527,168.362,55.61,55.0,55.0,,33.29
528,168.512,55.61,55.0,55.0,,33.29
529,168.662,55.62,55.0,55.0,,33.29
530,168.662,,,,52.97,
531,168.812,55.61,55.0,55.0,,33.27
532,168.962,55.6,55.0,55.0,,33.28
533,169.112,55.6,55.0,55.0,,33.26
534,169.262,55.61,55.0,55.0,,33.27
535,169.262,,,,52.92,
536,169.412,55.6,55.0,55.0,,33.26
537,169.562,55.6,55.0,55.0,,33.24
538,169.712,55.6,55.0,55.0,,33.25
539,169.862,55.6,55.0,55.0,,33.24
540,169.862,,,,52.94,
541,170.012,55.61,55.0,55.0,,33.24
542,170.163,55.61,55.0,55.0,,33.24
543,170.313,55.61,55.0,55.0,,33.23
544,170.462,55.61,55.0,55.0,,33.22
545,170.462,,,,52.92,
546,170.612,55.6,55.0,55.0,,33.21
547,170.762,55.61,55.0,55.0,,33.22
548,170.912,55.61,55.0,55.0,,33.2
549,171.062,55.62,55.0,55.0,,33.2
550,171.062,,,,52.97,
551,171.212,55.6,55.0,55.0,,33.2
552,171.362,55.62,55.0,55.0,,33.19
553,171.512,55.61,55.0,55.0,,33.2
554,171.662,55.6,55.0,55.0,,33.18
555,171.717,,,,53.51,
556,171.812,55.6,55.0,55.0,,33.17
557,171.962,55.61,55.0,55.0,,33.18
558,172.113,55.6,55.0,55.0,,33.17
559,172.262,55.61,55.0,55.0,,33.18
560,172.262,,,,52.97,
561,172.412,55.61,55.0,55.0,,33.16
562,172.562,55.62,55.0,55.0,,33.15
563,172.712,55.62,55.0,55.0,,33.16
564,172.864,55.61,55.01,55.0,,33.14
565,172.864,,,,53.35,
566,173.013,55.61,55.0,55.0,,33.15
567,173.162,55.62,55.01,55.0,,33.14
568,173.312,55.63,55.01,55.0,,33.14
569,173.462,55.62,55.01,55.0,,33.14
570,173.462,,,,52.91,
571,173.612,55.63,55.01,55.0,,33.13
572,173.762,55.63,55.01,55.0,,33.13
573,173.912,55.64,55.01,55.0,,33.13
574,174.062,55.65,55.01,55.0,,33.11
575,174.062,,,,53.02,
576,174.212,55.64,55.02,55.0,,33.11
577,174.362,55.64,55.02,55.0,,33.11
578,174.514,55.62,55.02,55.0,,33.11
579,174.662,55.62,55.02,55.0,,33.11
580,174.662,,,,52.98,
581,174.812,55.62,55.01,55.0,,33.1
582,174.964,55.61,55.01,55.0,,33.11
583,175.113,55.61,55.01,55.0,,33.1
584,175.262,55.61,55.01,55.0,,33.09
585,175.262,,,,52.96,
586,175.412,55.61,55.01,55.0,,33.08
587,175.562,55.6,55.01,55.0,,33.08
588,175.712,55.6,55.0,55.0,,33.08
589,175.862,55.6,55.0,55.0,,33.09
590,175.862,,,,53.0,
591,176.012,55.59,55.0,55.0,,33.07
592,176.162,55.59,55.0,55.0,,33.07
593,176.312,55.58,55.0,55.0,,33.06
594,176.462,55.57,54.99,55.0,,33.06
595,176.462,,,,53.02,
596,176.612,55.58,54.99,55.0,,33.06
597,176.762,55.59,54.99,55.0,,33.05
598,176.927,55.59,54.99,55.0,,33.05
599,177.076,55.59,54.99,55.0,,33.04
600,177.076,,,,52.93,
601,177.228,55.6,54.99,55.0,,33.03
602,177.376,55.6,54.99,55.0,,33.03
603,177.526,55.6,54.99,55.0,,33.03
604,177.676,55.61,55.0,55.0,,33.03
605,177.676,,,,53.01,
606,177.826,55.6,55.0,55.0,,33.03
607,177.976,55.62,55.0,55.0,,33.02
608,178.127,55.6,55.0,55.0,,33.01
609,178.276,55.62,55.0,55.0,,32.99
610,178.276,,,,52.94,
