,timeSinceBoot,PCR Temp,PCR Modeled TempC,PCR Target TempC,PCR Thermocouple TempC,PCR HeatSink TempC
0,2012.364,40.43,40.32,55.0,,40.29
1,2012.512,40.42,40.31,55.0,,40.26
2,2012.664,40.43,40.31,55.0,,40.26
3,2012.812,40.62,40.32,55.0,,40.25
4,2012.962,41.15,40.39,55.0,,40.2
5,2012.98,,,,27.64,
6,2013.112,42.03,40.54,55.0,,40.13
7,2013.262,43.16,40.79,55.0,,40.03
8,2013.412,44.78,41.16,55.0,,39.93
9,2013.562,46.24,41.62,55.0,,39.84
10,2013.622,,,,27.99,
11,2013.712,47.71,42.17,55.0,,39.75
12,2013.862,49.3,42.8,55.0,,39.64
13,2014.012,50.89,43.51,55.0,,39.55
14,2014.162,52.46,44.27,55.0,,39.46
15,2014.222,,,,28.42,
16,2014.312,54.43,45.11,55.0,,39.35
17,2014.462,56.05,45.98,55.0,,39.28
18,2014.612,57.59,46.88,55.0,,39.2
19,2014.762,59.19,47.81,55.0,,39.13
20,2014.762,,,,28.64,
21,2014.912,60.72,48.75,55.0,,39.07
22,2015.062,62.26,49.72,55.0,,39.0
23,2015.218,64.13,50.72,55.0,,38.92
24,2015.367,65.64,51.72,55.0,,38.87
25,2015.367,,,,29.09,
26,2015.517,67.08,52.72,55.0,,38.8
27,2015.668,68.29,53.71,55.0,,38.76
28,2015.817,68.98,54.62,55.0,,38.79
29,2015.968,69.18,55.42,55.0,,38.92
30,2015.968,,,,29.46,
31,2016.119,68.98,56.07,55.0,,39.08
32,2016.265,68.37,56.57,55.0,,39.35
33,2016.412,67.7,56.93,55.0,,39.59
34,2016.562,66.87,57.15,55.0,,39.88
35,2016.562,,,,29.74,
36,2016.712,66.04,57.25,55.0,,40.13
37,2016.861,65.21,57.26,55.0,,40.36
38,2017.01,64.3,57.2,55.0,,40.61
39,2017.162,63.54,57.08,55.0,,40.79
40,2017.162,,,,30.27,
41,2017.313,62.85,56.93,55.0,,40.93
42,2017.463,62.24,56.76,55.0,,41.03
43,2017.612,61.7,56.56,55.0,,41.11
44,2017.762,61.22,56.37,55.0,,41.16
45,2017.762,,,,30.59,
46,2017.91,60.73,56.18,55.0,,41.22
47,2018.06,60.35,56.0,55.0,,41.23
48,2018.21,60.04,55.83,55.0,,41.25
49,2018.361,59.73,55.67,55.0,,41.26
50,2018.361,,,,31.57,
51,2018.511,59.46,55.52,55.0,,41.26
52,2018.66,59.18,55.38,55.0,,41.25
53,2018.812,58.96,55.26,55.0,,41.24
54,2018.961,58.75,55.15,55.0,,41.23
55,2018.961,,,,32.67,
56,2019.111,58.59,55.05,55.0,,41.21
57,2019.26,58.43,54.96,55.0,,41.19
58,2019.411,58.29,54.89,55.0,,41.18
59,2019.56,58.13,54.82,55.0,,41.15
60,2019.56,,,,36.13,
61,2019.711,58.01,54.76,55.0,,41.13
62,2019.861,57.88,54.7,55.0,,41.1
63,2020.01,57.75,54.65,55.0,,41.08
64,2020.162,57.62,54.61,55.0,,41.07
65,2020.162,,,,41.81,
66,2020.311,57.45,54.56,55.0,,41.04
67,2020.461,57.33,54.52,55.0,,41.02
68,2020.611,57.22,54.48,55.0,,41.0
69,2020.76,57.13,54.44,55.0,,40.98
70,2020.76,,,,44.5,
71,2020.91,57.03,54.41,55.0,,40.96
72,2021.06,56.94,54.38,55.0,,40.94
73,2021.211,56.88,54.35,55.0,,40.92
74,2021.362,56.81,54.33,55.0,,40.9
75,2021.362,,,,46.02,
76,2021.51,56.75,54.31,55.0,,40.87
77,2021.661,56.7,54.3,55.0,,40.86
78,2021.81,56.65,54.28,55.0,,40.83
79,2021.961,56.62,54.28,55.0,,40.81
80,2021.961,,,,47.1,
81,2022.111,56.58,54.27,55.0,,40.79
82,2022.261,56.56,54.27,55.0,,40.77
83,2022.411,56.54,54.27,55.0,,40.76
84,2022.561,56.52,54.28,55.0,,40.74
85,2022.561,,,,47.93,
86,2022.712,56.51,54.29,55.0,,40.72
87,2022.861,56.49,54.3,55.0,,40.7
88,2023.01,56.48,54.31,55.0,,40.69
89,2023.161,56.48,54.32,55.0,,40.66
90,2023.161,,,,48.67,
91,2023.31,56.47,54.34,55.0,,40.64
92,2023.461,56.47,54.35,55.0,,40.63
93,2023.61,56.46,54.37,55.0,,40.61
94,2023.761,56.45,54.39,55.0,,40.59
95,2023.761,,,,49.3,
96,2023.911,56.45,54.4,55.0,,40.58
97,2024.061,56.45,54.42,55.0,,40.56
98,2024.21,56.45,54.44,55.0,,40.55
99,2024.361,56.44,54.46,55.0,,40.54
100,2024.361,,,,49.85,
101,2024.51,56.44,54.48,55.0,,40.53
102,2024.685,56.43,54.5,55.0,,40.52
103,2024.833,56.43,54.52,55.0,,40.5
104,2024.833,,,,50.27,
105,2024.983,56.42,54.53,55.0,,40.49
106,2025.133,56.41,54.55,55.0,,40.48
107,2025.283,56.42,54.57,55.0,,40.45
108,2025.433,56.42,54.59,55.0,,40.45
109,2025.583,56.41,54.61,55.0,,40.44
110,2025.583,,,,50.7,
111,2025.733,56.4,54.62,55.0,,40.43
112,2025.884,56.39,54.64,55.0,,40.41
113,2026.033,56.38,54.65,55.0,,40.41
114,2026.183,56.37,54.67,55.0,,40.4
115,2026.183,,,,51.41,
116,2026.333,56.36,54.68,55.0,,40.39
117,2026.483,56.37,54.7,55.0,,40.38
118,2026.633,56.35,54.71,55.0,,40.37
119,2026.783,56.35,54.72,55.0,,40.37
120,2026.783,,,,51.44,
121,2026.933,56.33,54.74,55.0,,40.35
122,2027.083,56.33,54.75,55.0,,40.35
123,2027.233,56.33,54.76,55.0,,40.33
124,2027.383,56.31,54.77,55.0,,40.33
125,2027.383,,,,51.76,
126,2027.533,56.31,54.78,55.0,,40.32
127,2027.683,56.3,54.79,55.0,,40.31
128,2027.833,56.28,54.8,55.0,,40.31
129,2027.983,56.27,54.81,55.0,,40.29
130,2027.983,,,,51.93,
131,2028.133,56.26,54.82,55.0,,40.29
132,2028.283,56.24,54.83,55.0,,40.28
133,2028.433,56.24,54.84,55.0,,40.27
134,2028.583,56.24,54.85,55.0,,40.27
135,2028.583,,,,52.1,
136,2028.733,56.23,54.85,55.0,,40.26
137,2028.883,56.21,54.86,55.0,,40.25
138,2029.033,56.2,54.87,55.0,,40.25
139,2029.183,56.2,54.88,55.0,,40.23
140,2029.183,,,,52.26,
141,2029.333,56.19,54.88,55.0,,40.23
142,2029.484,56.19,54.89,55.0,,40.23
143,2029.633,56.18,54.9,55.0,,40.21
144,2029.783,56.16,54.9,55.0,,40.21
145,2029.783,,,,52.49,
146,2029.933,56.16,54.91,55.0,,40.2
147,2030.083,56.15,54.92,55.0,,40.2
148,2030.233,56.14,54.92,55.0,,40.19
149,2030.383,56.13,54.93,55.0,,40.19
150,2030.383,,,,52.74,
151,2030.533,56.12,54.93,55.0,,40.18
152,2030.683,56.11,54.94,55.0,,40.16
153,2030.833,56.11,54.94,55.0,,40.16
154,2030.983,56.1,54.95,55.0,,40.16
155,2030.983,,,,52.78,
156,2031.133,56.1,54.95,55.0,,40.15
157,2031.283,56.09,54.96,55.0,,40.14
158,2031.433,56.09,54.96,55.0,,40.14
159,2031.583,56.07,54.97,55.0,,40.13
160,2031.583,,,,52.92,
161,2031.733,56.07,54.97,55.0,,40.13
162,2031.883,56.06,54.98,55.0,,40.12
163,2032.033,56.05,54.98,55.0,,40.11
164,2032.183,56.04,54.98,55.0,,40.12
165,2032.183,,,,53.05,
166,2032.333,56.03,54.99,55.0,,40.1
167,2032.483,56.03,54.99,55.0,,40.1
168,2032.633,56.01,54.99,55.0,,40.08
169,2032.783,56.01,54.99,55.0,,40.09
170,2032.783,,,,53.18,
171,2032.933,56.01,55.0,55.0,,40.09
172,2033.083,55.99,55.0,55.0,,40.07
173,2033.233,56.0,55.0,55.0,,40.08
174,2033.383,55.99,55.0,55.0,,40.07
175,2033.383,,,,53.22,
176,2033.533,55.97,55.01,55.0,,40.06
177,2033.683,55.97,55.01,55.0,,40.05
178,2033.833,55.96,55.01,55.0,,40.05
179,2033.983,55.94,55.01,55.0,,40.04
180,2033.983,,,,53.57,
181,2034.133,55.94,55.01,55.0,,40.04
182,2034.283,55.93,55.01,55.0,,40.03
183,2034.433,55.93,55.02,55.0,,40.03
184,2034.583,55.93,55.02,55.0,,40.03
185,2034.583,,,,53.4,
186,2034.733,55.92,55.02,55.0,,40.01
187,2034.883,55.91,55.02,55.0,,40.02
188,2035.033,55.9,55.02,55.0,,40.01
189,2035.183,55.89,55.02,55.0,,40.01
190,2035.183,,,,53.39,
191,2035.333,55.88,55.02,55.0,,40.0
192,2035.483,55.87,55.02,55.0,,39.99
193,2035.633,55.87,55.02,55.0,,39.99
194,2035.783,55.86,55.02,55.0,,39.99
195,2035.783,,,,53.44,
196,2035.933,55.86,55.02,55.0,,39.98
197,2036.083,55.86,55.02,55.0,,39.97
198,2036.233,55.85,55.02,55.0,,39.97
199,2036.383,55.85,55.02,55.0,,39.96
200,2036.383,,,,53.52,
201,2036.533,55.85,55.02,55.0,,39.96
202,2036.702,55.85,55.03,55.0,,39.94
203,2036.851,55.84,55.03,55.0,,39.95
204,2037.002,55.83,55.03,55.0,,39.94
205,2037.002,,,,53.6,
206,2037.152,55.82,55.03,55.0,,39.94
207,2037.302,55.82,55.03,55.0,,39.93
208,2037.452,55.82,55.03,55.0,,39.93
209,2037.602,55.81,55.03,55.0,,39.91
210,2037.602,,,,53.58,
211,2037.752,55.8,55.03,55.0,,39.91
212,2037.902,55.79,55.03,55.0,,39.9
213,2038.052,55.79,55.03,55.0,,39.9
214,2038.201,55.78,55.03,55.0,,39.89
215,2038.201,,,,53.61,
216,2038.352,55.77,55.03,55.0,,39.89
217,2038.502,55.78,55.03,55.0,,39.89
218,2038.652,55.78,55.03,55.0,,39.88
219,2038.801,55.77,55.03,55.0,,39.88
220,2038.801,,,,53.73,
221,2038.952,55.77,55.03,55.0,,39.87
222,2039.101,55.75,55.03,55.0,,39.86
223,2039.252,55.76,55.03,55.0,,39.87
224,2039.402,55.76,55.03,55.0,,39.86
225,2039.462,,,,53.74,
226,2039.553,55.75,55.03,55.0,,39.85
227,2039.701,55.75,55.03,55.0,,39.84
228,2039.852,55.74,55.03,55.0,,39.84
229,2040.002,55.75,55.03,55.0,,39.83
230,2040.002,,,,53.69,
231,2040.152,55.74,55.03,55.0,,39.83
232,2040.301,55.74,55.03,55.0,,39.83
233,2040.452,55.73,55.03,55.0,,39.82
234,2040.602,55.74,55.03,55.0,,39.82
235,2040.602,,,,53.99,
236,2040.752,55.72,55.03,55.0,,39.81
237,2040.902,55.73,55.03,55.0,,39.8
238,2041.052,55.72,55.03,55.0,,39.8
239,2041.202,55.72,55.03,55.0,,39.8
240,2041.202,,,,53.79,
241,2041.352,55.7,55.02,55.0,,39.79
242,2041.502,55.7,55.02,55.0,,39.78
243,2041.652,55.7,55.02,55.0,,39.78
244,2041.802,55.7,55.02,55.0,,39.78
245,2041.802,,,,53.79,
246,2041.952,55.71,55.02,55.0,,39.77
247,2042.102,55.71,55.02,55.0,,39.76
248,2042.251,55.7,55.02,55.0,,39.76
249,2042.402,55.69,55.02,55.0,,39.76
250,2042.402,,,,53.77,
251,2042.551,55.69,55.02,55.0,,39.76
252,2042.702,55.69,55.02,55.0,,39.75
253,2042.852,55.69,55.02,55.0,,39.74
254,2043.002,55.68,55.02,55.0,,39.74
255,2043.151,55.69,55.02,55.0,,39.74
256,2043.151,,,,53.77,
257,2043.302,55.69,55.02,55.0,,39.73
258,2043.452,55.69,55.02,55.0,,39.72
259,2043.602,55.68,55.02,55.0,,39.71
260,2043.752,55.68,55.02,55.0,,39.72
261,2043.752,,,,53.8,
262,2043.902,55.68,55.02,55.0,,39.71
263,2044.051,55.67,55.02,55.0,,39.71
264,2044.202,55.66,55.02,55.0,,39.71
265,2044.352,55.67,55.02,55.0,,39.69
266,2044.352,,,,53.91,
267,2044.502,55.67,55.02,55.0,,39.68
268,2044.651,55.67,55.02,55.0,,39.68
269,2044.801,55.65,55.02,55.0,,39.67
270,2044.952,55.66,55.02,55.0,,39.68
271,2045.005,,,,53.82,
272,2045.102,55.65,55.02,55.0,,39.66
273,2045.252,55.66,55.02,55.0,,39.66
274,2045.402,55.67,55.02,55.0,,39.65
275,2045.552,55.66,55.02,55.0,,39.65
276,2045.552,,,,53.82,
277,2045.733,55.66,55.02,55.0,,39.65
278,2045.883,55.66,55.02,55.0,,39.64
279,2046.033,55.65,55.02,55.0,,39.64
280,2046.184,55.65,55.02,55.0,,39.63
281,2046.184,,,,54.05,
282,2046.333,55.65,55.02,55.0,,39.63
283,2046.483,55.65,55.02,55.0,,39.62
284,2046.633,55.65,55.02,55.0,,39.61
285,2046.783,55.66,55.02,55.0,,39.61
286,2046.783,,,,53.94,
287,2046.933,55.67,55.02,55.0,,39.6
288,2047.083,55.66,55.02,55.0,,39.61
289,2047.233,55.66,55.02,55.0,,39.59
290,2047.383,55.65,55.02,55.0,,39.59
291,2047.383,,,,54.01,
292,2047.533,55.65,55.02,55.0,,39.59
293,2047.683,55.65,55.02,55.0,,39.59
294,2047.833,55.65,55.02,55.0,,39.58
295,2047.983,55.65,55.02,55.0,,39.57
296,2047.983,,,,53.93,
297,2048.133,55.65,55.02,55.0,,39.56
298,2048.283,55.64,55.02,55.0,,39.57
299,2048.433,55.65,55.02,55.0,,39.57
300,2048.583,55.64,55.02,55.0,,39.55
301,2048.583,,,,53.92,
302,2048.733,55.63,55.02,55.0,,39.55
303,2048.883,55.65,55.02,55.0,,39.55
304,2049.033,55.64,55.02,55.0,,39.54
305,2049.183,55.62,55.01,55.0,,39.55
306,2049.183,,,,53.92,
307,2049.333,55.63,55.01,55.0,,39.54
308,2049.483,55.62,55.01,55.0,,39.54
309,2049.633,55.63,55.01,55.0,,39.53
310,2049.783,55.63,55.01,55.0,,39.52
311,2049.783,,,,53.93,
312,2049.933,55.63,55.01,55.0,,39.52
313,2050.083,55.63,55.01,55.0,,39.52
314,2050.234,55.63,55.01,55.0,,39.52
315,2050.383,55.63,55.01,55.0,,39.5
316,2050.383,,,,54.0,
317,2050.533,55.64,55.01,55.0,,39.5
318,2050.683,55.63,55.01,55.0,,39.5
319,2050.833,55.63,55.01,55.0,,39.49
320,2050.983,55.63,55.01,55.0,,39.49
321,2050.983,,,,54.01,
322,2051.133,55.64,55.01,55.0,,39.48
323,2051.283,55.63,55.01,55.0,,39.49
324,2051.433,55.63,55.01,55.0,,39.47
325,2051.583,55.62,55.01,55.0,,39.47
326,2051.694,,,,53.91,
327,2051.733,55.62,55.01,55.0,,39.46
328,2051.883,55.63,55.01,55.0,,39.46
329,2052.033,55.64,55.01,55.0,,39.46
330,2052.183,55.63,55.01,55.0,,39.45
331,2052.183,,,,53.97,
332,2052.333,55.63,55.01,55.0,,39.45
333,2052.483,55.63,55.01,55.0,,39.44
334,2052.633,55.62,55.01,55.0,,39.45
335,2052.783,55.61,55.01,55.0,,39.43
336,2052.805,,,,54.13,
337,2052.934,55.61,55.01,55.0,,39.43
338,2053.083,55.62,55.01,55.0,,39.42
339,2053.233,55.63,55.01,55.0,,39.42
340,2053.383,55.62,55.01,55.0,,39.43
341,2053.383,,,,53.89,
342,2053.533,55.62,55.01,55.0,,39.41
343,2053.683,55.62,55.01,55.0,,39.41
344,2053.833,55.63,55.01,55.0,,39.4
345,2053.983,55.63,55.01,55.0,,39.4
346,2053.983,,,,54.15,
347,2054.133,55.62,55.01,55.0,,39.39
348,2054.283,55.62,55.01,55.0,,39.41
349,2054.433,55.63,55.01,55.0,,39.4
350,2054.583,55.62,55.01,55.0,,39.38
351,2054.583,,,,53.98,
352,2054.733,55.63,55.01,55.0,,39.38
353,2054.883,55.62,55.01,55.0,,39.38
354,2055.033,55.62,55.01,55.0,,39.38
355,2055.183,55.62,55.01,55.0,,39.36
356,2055.183,,,,54.1,
357,2055.333,55.63,55.01,55.0,,39.37
358,2055.483,55.62,55.01,55.0,,39.36
359,2055.633,55.63,55.01,55.0,,39.36
360,2055.783,55.63,55.01,55.0,,39.35
361,2055.783,,,,53.98,
362,2055.933,55.62,55.01,55.0,,39.35
363,2056.083,55.62,55.01,55.0,,39.35
364,2056.234,55.62,55.01,55.0,,39.34
365,2056.383,55.62,55.01,55.0,,39.33
366,2056.383,,,,53.96,
367,2056.533,55.62,55.01,55.0,,39.33
368,2056.683,55.61,55.01,55.0,,39.34
369,2056.833,55.62,55.01,55.0,,39.33
370,2056.983,55.62,55.01,55.0,,39.33
371,2057.133,55.61,55.01,55.0,,39.33
372,2057.133,,,,53.96,
373,2057.283,55.61,55.01,55.0,,39.31
374,2057.433,55.61,55.01,55.0,,39.31
375,2057.583,55.61,55.01,55.0,,39.31
376,2057.687,,,,54.08,
377,2057.754,55.61,55.01,55.0,,39.31
378,2057.904,55.61,55.01,55.0,,39.3
379,2058.054,55.6,55.0,55.0,,39.29
380,2058.204,55.61,55.0,55.0,,39.29
381,2058.204,,,,53.96,
382,2058.354,55.61,55.0,55.0,,39.29
383,2058.503,55.61,55.0,55.0,,39.3
384,2058.654,55.6,55.0,55.0,,39.28
385,2058.804,55.6,55.0,55.0,,39.28
386,2058.804,,,,53.98,
387,2058.954,55.6,55.0,55.0,,39.27
388,2059.104,55.6,55.0,55.0,,39.27
389,2059.254,55.6,55.0,55.0,,39.27
390,2059.404,55.6,55.0,55.0,,39.27
391,2059.554,55.6,55.0,55.0,,39.26
392,2059.554,,,,54.06,
393,2059.704,55.6,55.0,55.0,,39.25
394,2059.854,55.6,55.0,55.0,,39.24
395,2060.004,55.61,55.0,55.0,,39.24
396,2060.154,55.61,55.0,55.0,,39.24
397,2060.154,,,,54.09,
398,2060.304,55.6,55.0,55.0,,39.24
399,2060.454,55.61,55.0,55.0,,39.24
400,2060.61,55.61,55.0,55.0,,39.23
401,2060.754,55.61,55.0,55.0,,39.23
402,2060.754,,,,54.23,
403,2060.903,55.62,55.0,55.0,,39.22
404,2061.053,55.62,55.0,55.0,,39.22
405,2061.205,55.62,55.01,55.0,,39.22
406,2061.354,55.62,55.01,55.0,,39.21
407,2061.354,,,,54.01,
408,2061.504,55.62,55.01,55.0,,39.21
409,2061.654,55.62,55.01,55.0,,39.2
410,2061.804,55.61,55.01,55.0,,39.19
411,2061.954,55.61,55.01,55.0,,39.19
412,2061.954,,,,54.14,
413,2062.104,55.62,55.01,55.0,,39.19
414,2062.254,55.63,55.01,55.0,,39.19
415,2062.404,55.62,55.01,55.0,,39.18
416,2062.554,55.62,55.01,55.0,,39.17
417,2062.554,,,,54.11,
418,2062.704,55.62,55.01,55.0,,39.16
419,2062.854,55.62,55.01,55.0,,39.16
420,2063.004,55.63,55.01,55.0,,39.17
421,2063.154,55.62,55.01,55.0,,39.16
422,2063.154,,,,54.07,
423,2063.304,55.63,55.01,55.0,,39.16
424,2063.453,55.63,55.01,55.0,,39.15
425,2063.611,55.63,55.01,55.0,,39.16
426,2063.753,55.62,55.01,55.0,,39.14
427,2063.753,,,,54.04,
428,2063.904,55.62,55.01,55.0,,39.14
429,2064.054,55.61,55.01,55.0,,39.14
430,2064.204,55.62,55.01,55.0,,39.13
431,2064.354,55.62,55.01,55.0,,39.13
432,2064.354,,,,54.1,
433,2064.504,55.62,55.01,55.0,,39.13
434,2064.654,55.6,55.01,55.0,,39.12
435,2064.804,55.6,55.01,55.0,,39.12
436,2064.954,55.6,55.01,55.0,,39.12
437,2064.954,,,,54.02,
438,2065.105,55.61,55.01,55.0,,39.11
439,2065.254,55.61,55.0,55.0,,39.1
440,2065.404,55.61,55.0,55.0,,39.11
441,2065.554,55.61,55.0,55.0,,39.11
442,2065.554,,,,54.01,
443,2065.704,55.59,55.0,55.0,,39.1
444,2065.854,55.6,55.0,55.0,,39.09
445,2066.005,55.6,55.0,55.0,,39.09
446,2066.154,55.62,55.0,55.0,,39.09
447,2066.174,,,,54.01,
448,2066.304,55.61,55.0,55.0,,39.08
449,2066.454,55.6,55.0,55.0,,39.08
450,2066.605,55.61,55.0,55.0,,39.08
451,2066.754,55.61,55.0,55.0,,39.08
452,2066.754,,,,54.06,
453,2066.904,55.61,55.0,55.0,,39.07
454,2067.054,55.62,55.0,55.0,,39.07
455,2067.204,55.61,55.0,55.0,,39.07
456,2067.354,55.62,55.0,55.0,,39.06
457,2067.354,,,,54.31,
458,2067.504,55.61,55.0,55.0,,39.06
459,2067.654,55.63,55.01,55.0,,39.06
460,2067.804,55.62,55.01,55.0,,39.05
461,2067.954,55.62,55.01,55.0,,39.06
462,2067.954,,,,53.99,
463,2068.104,55.62,55.01,55.0,,39.06
464,2068.254,55.62,55.01,55.0,,39.05
465,2068.404,55.61,55.01,55.0,,39.04
466,2068.554,55.61,55.01,55.0,,39.04
467,2068.554,,,,54.02,
468,2068.704,55.61,55.01,55.0,,39.04
469,2068.853,55.62,55.01,55.0,,39.03
470,2069.004,55.62,55.01,55.0,,39.03
471,2069.154,55.62,55.01,55.0,,39.04
472,2069.154,,,,54.03,
473,2069.304,55.62,55.01,55.0,,39.03
474,2069.454,55.61,55.01,55.0,,39.02
475,2069.604,55.62,55.01,55.0,,39.03
476,2069.753,55.6,55.01,55.0,,39.02
477,2069.753,,,,54.05,
478,2069.904,55.62,55.01,55.0,,39.01
479,2070.053,55.62,55.01,55.0,,39.02
480,2070.204,55.62,55.01,55.0,,39.01
481,2070.354,55.62,55.01,55.0,,39.01
482,2070.354,,,,54.14,
483,2070.503,55.61,55.01,55.0,,39.01
484,2070.654,55.62,55.01,55.0,,39.0
485,2070.803,55.62,55.01,55.0,,39.0
486,2070.954,55.62,55.01,55.0,,38.99
487,2070.954,,,,54.12,
488,2071.104,55.62,55.01,55.0,,38.99
489,2071.254,55.62,55.01,55.0,,38.99
490,2071.404,55.62,55.01,55.0,,38.98
491,2071.554,55.61,55.01,55.0,,38.98
492,2071.554,,,,54.01,
493,2071.704,55.62,55.01,55.0,,38.98
494,2071.854,55.61,55.01,55.0,,38.97
495,2072.003,55.61,55.01,55.0,,38.97
496,2072.154,55.62,55.01,55.0,,38.98
497,2072.154,,,,54.12,
498,2072.304,55.63,55.01,55.0,,38.97
499,2072.454,55.62,55.01,55.0,,38.96
500,2072.609,55.61,55.01,55.0,,38.97
501,2072.754,55.62,55.01,55.0,,38.96
502,2072.877,,,,54.01,
503,2072.904,55.61,55.01,55.0,,38.95
504,2073.054,55.62,55.01,55.0,,38.95
505,2073.204,55.62,55.01,55.0,,38.95
506,2073.354,55.62,55.01,55.0,,38.94
507,2073.504,55.62,55.01,55.0,,38.94
508,2073.504,,,,54.11,
509,2073.654,55.62,55.01,55.0,,38.94
510,2073.804,55.62,55.01,55.0,,38.93
511,2073.955,55.63,55.01,55.0,,38.93
512,2074.104,55.62,55.01,55.0,,38.93
513,2074.104,,,,54.17,
514,2074.253,55.63,55.01,55.0,,38.92
515,2074.404,55.62,55.01,55.0,,38.93
516,2074.554,55.63,55.01,55.0,,38.93
517,2074.704,55.61,55.01,55.0,,38.91
518,2074.704,,,,54.02,
519,2074.854,55.62,55.01,55.0,,38.91
520,2075.004,55.62,55.01,55.0,,38.9
521,2075.154,55.62,55.01,55.0,,38.9
522,2075.304,55.62,55.01,55.0,,38.9
523,2075.304,,,,54.09,
524,2075.454,55.62,55.01,55.0,,38.9
525,2075.61,55.62,55.01,55.0,,38.89
526,2075.753,55.62,55.01,55.0,,38.89
527,2075.904,55.62,55.01,55.0,,38.88
528,2075.904,,,,54.04,
529,2076.054,55.6,55.01,55.0,,38.88
530,2076.204,55.61,55.01,55.0,,38.87
531,2076.354,55.6,55.01,55.0,,38.88
532,2076.504,55.6,55.01,55.0,,38.87
533,2076.504,,,,54.14,
534,2076.654,55.61,55.01,55.0,,38.87
535,2076.804,55.6,55.0,55.0,,38.86
536,2076.954,55.61,55.0,55.0,,38.86
537,2077.104,55.6,55.0,55.0,,38.85
538,2077.104,,,,54.05,
539,2077.254,55.61,55.0,55.0,,38.86
540,2077.404,55.61,55.0,55.0,,38.85
541,2077.554,55.61,55.0,55.0,,38.84
542,2077.704,55.62,55.01,55.0,,38.84
543,2077.704,,,,54.13,
544,2077.854,55.62,55.01,55.0,,38.84
545,2078.004,55.62,55.01,55.0,,38.84
546,2078.154,55.61,55.01,55.0,,38.83
547,2078.304,55.61,55.01,55.0,,38.83
548,2078.304,,,,54.12,
549,2078.454,55.6,55.0,55.0,,38.83
550,2078.611,55.6,55.0,55.0,,38.82
551,2078.754,55.6,55.0,55.0,,38.82
552,2078.904,55.61,55.0,55.0,,38.82
553,2078.904,,,,54.08,
554,2079.054,55.6,55.0,55.0,,38.81
555,2079.203,55.61,55.0,55.0,,38.8
556,2079.354,55.61,55.0,55.0,,38.8
557,2079.504,55.61,55.0,55.0,,38.8
558,2079.559,,,,54.07,
559,2079.654,55.61,55.0,55.0,,38.8
560,2079.803,55.61,55.0,55.0,,38.79
561,2079.953,55.62,55.0,55.0,,38.78
562,2080.103,55.61,55.0,55.0,,38.78
563,2080.103,,,,54.12,
564,2080.254,55.6,55.0,55.0,,38.78
565,2080.403,55.61,55.0,55.0,,38.78
566,2080.553,55.62,55.0,55.0,,38.77
567,2080.704,55.62,55.0,55.0,,38.76
568,2080.704,,,,54.39,
569,2080.853,55.62,55.01,55.0,,38.77
570,2081.004,55.61,55.01,55.0,,38.76
571,2081.153,55.62,55.01,55.0,,38.76
572,2081.304,55.62,55.01,55.0,,38.75
573,2081.304,,,,54.08,
574,2081.454,55.61,55.01,55.0,,38.75
575,2081.605,55.62,55.01,55.0,,38.75
576,2081.754,55.62,55.01,55.0,,38.75
577,2081.904,55.61,55.01,55.0,,38.74
578,2081.904,,,,54.18,
579,2082.053,55.61,55.01,55.0,,38.73
580,2082.204,55.61,55.01,55.0,,38.73
581,2082.354,55.6,55.0,55.0,,38.72
582,2082.503,55.61,55.0,55.0,,38.72
583,2082.503,,,,54.05,
584,2082.654,55.6,55.0,55.0,,38.72
585,2082.804,55.62,55.0,55.0,,38.71
586,2082.953,55.61,55.0,55.0,,38.71
587,2083.104,55.6,55.0,55.0,,38.7
588,2083.104,,,,54.16,
589,2083.254,55.6,55.0,55.0,,38.69
