,timeSinceBoot,PCR Temp,PCR Modeled TempC,PCR Target TempC,PCR Thermocouple TempC,PCR HeatSink TempC
0,3976.584,36.15,36.08,55.0,,36.11
1,3976.742,36.15,36.08,55.0,,36.1
2,3976.891,36.16,36.07,55.0,,36.09
3,3977.042,36.29,36.08,55.0,,36.06
4,3977.087,,,,33.19,
5,3977.191,36.77,36.14,55.0,,35.99
6,3977.341,37.66,36.27,55.0,,35.89
7,3977.493,38.89,36.52,55.0,,35.78
8,3977.642,40.42,36.89,55.0,,35.67
9,3977.693,,,,33.87,
10,3977.819,42.07,37.38,55.0,,35.55
11,3977.958,43.82,37.98,55.0,,35.45
12,3978.11,45.59,38.67,55.0,,35.35
13,3978.26,47.51,39.45,55.0,,35.24
14,3978.266,,,,35.34,
15,3978.41,49.34,40.31,55.0,,35.15
16,3978.562,50.54,41.15,55.0,,35.09
17,3978.71,53.06,42.09,55.0,,34.97
18,3978.877,54.8,43.1,55.0,,34.9
19,3978.889,,,,36.82,
20,3979.027,56.57,44.14,55.0,,34.82
21,3979.198,58.19,45.18,55.0,,34.76
22,3979.344,59.85,46.24,55.0,,34.69
23,3979.488,,,,40.64,
24,3979.513,61.41,47.29,55.0,,34.63
25,3979.667,62.99,48.34,55.0,,34.58
26,3979.836,65.14,49.44,55.0,,34.5
27,3979.985,66.19,50.49,55.0,,34.47
28,3979.997,,,,54.49,
29,3980.135,67.93,51.56,55.0,,34.49
30,3980.285,68.57,52.57,55.0,,34.6
31,3980.435,68.72,53.44,55.0,,34.8
32,3980.586,68.29,54.14,55.0,,35.14
33,3980.586,,,,61.73,
34,3980.738,67.65,54.66,55.0,,35.43
35,3980.882,66.82,55.03,55.0,,35.74
36,3981.032,65.53,55.22,55.0,,36.16
37,3981.181,64.5,55.28,55.0,,36.46
38,3981.328,63.53,55.23,55.0,,36.7
39,3981.328,,,,59.09,
40,3981.479,62.62,55.12,55.0,,36.89
41,3981.668,62.3,55.01,55.0,,36.95
42,3981.815,62.18,54.92,55.0,,36.97
43,3981.859,,,,59.05,
44,3981.966,62.18,54.87,55.0,,36.97
45,3982.116,62.2,54.85,55.0,,36.96
46,3982.266,62.19,54.86,55.0,,36.95
47,3982.416,62.13,54.88,55.0,,36.94
48,3982.416,,,,58.96,
49,3982.566,62.05,54.91,55.0,,36.93
50,3982.715,61.93,54.94,55.0,,36.91
51,3982.866,61.75,54.97,55.0,,36.9
52,3983.015,61.6,54.99,55.0,,36.89
53,3983.166,61.44,55.01,55.0,,36.88
54,3983.166,,,,58.46,
55,3983.316,61.22,55.02,55.0,,36.86
56,3983.466,61.06,55.02,55.0,,36.85
57,3983.616,60.9,55.03,55.0,,36.83
58,3983.766,60.69,55.02,55.0,,36.81
59,3983.766,,,,57.82,
60,3983.916,60.55,55.02,55.0,,36.8
61,3984.066,60.39,55.01,55.0,,36.79
62,3984.216,60.2,55.0,55.0,,36.78
63,3984.366,60.06,54.99,55.0,,36.77
64,3984.366,,,,57.21,
65,3984.516,59.94,54.99,55.0,,36.76
66,3984.666,59.75,54.97,55.0,,36.75
67,3984.816,59.63,54.96,55.0,,36.73
68,3984.966,59.51,54.95,55.0,,36.73
69,3984.966,,,,57.14,
70,3985.116,59.36,54.94,55.0,,36.71
71,3985.265,59.26,54.93,55.0,,36.7
72,3985.416,59.16,54.92,55.0,,36.7
73,3985.566,59.02,54.91,55.0,,36.68
74,3985.566,,,,56.35,
75,3985.716,58.92,54.9,55.0,,36.67
76,3985.866,58.82,54.9,55.0,,36.67
77,3986.016,58.7,54.89,55.0,,36.66
78,3986.166,58.61,54.88,55.0,,36.65
79,3986.166,,,,56.18,
80,3986.315,58.53,54.87,55.0,,36.64
81,3986.466,58.43,54.87,55.0,,36.62
82,3986.616,58.35,54.87,55.0,,36.62
83,3986.766,58.28,54.86,55.0,,36.61
84,3986.766,,,,55.7,
85,3986.916,58.19,54.86,55.0,,36.6
86,3987.066,58.12,54.86,55.0,,36.59
87,3987.216,58.06,54.86,55.0,,36.58
88,3987.366,57.98,54.86,55.0,,36.58
89,3987.366,,,,55.62,
90,3987.516,57.93,54.86,55.0,,36.57
91,3987.665,57.88,54.86,55.0,,36.56
92,3987.816,57.82,54.86,55.0,,36.55
93,3987.965,57.76,54.87,55.0,,36.54
94,3987.965,,,,55.26,
95,3988.118,57.71,54.87,55.0,,36.53
96,3988.266,57.67,54.88,55.0,,36.53
97,3988.415,57.61,54.88,55.0,,36.52
98,3988.565,57.57,54.89,55.0,,36.52
99,3988.565,,,,55.06,
100,3988.716,57.54,54.89,55.0,,36.51
101,3988.866,57.48,54.9,55.0,,36.5
102,3989.016,57.43,54.9,55.0,,36.5
103,3989.166,57.39,54.91,55.0,,36.49
104,3989.166,,,,54.85,
105,3989.316,57.34,54.91,55.0,,36.48
106,3989.466,57.3,54.92,55.0,,36.48
107,3989.616,57.26,54.92,55.0,,36.47
108,3989.765,57.22,54.93,55.0,,36.46
109,3989.765,,,,54.83,
110,3989.916,57.19,54.93,55.0,,36.46
111,3990.066,57.15,54.94,55.0,,36.45
112,3990.216,57.1,54.94,55.0,,36.45
113,3990.366,57.07,54.95,55.0,,36.44
114,3990.371,,,,55.37,
115,3990.516,57.03,54.95,55.0,,36.44
116,3990.665,57.0,54.95,55.0,,36.43
117,3990.815,56.97,54.96,55.0,,36.43
118,3990.965,56.94,54.96,55.0,,36.42
119,3990.965,,,,54.51,
120,3991.116,56.9,54.97,55.0,,36.42
121,3991.266,56.87,54.97,55.0,,36.41
122,3991.416,56.84,54.97,55.0,,36.41
123,3991.565,56.8,54.97,55.0,,36.4
124,3991.565,,,,54.86,
125,3991.715,56.77,54.98,55.0,,36.4
126,3991.865,56.75,54.98,55.0,,36.39
127,3992.016,56.71,54.98,55.0,,36.38
128,3992.165,56.69,54.98,55.0,,36.38
129,3992.165,,,,54.28,
130,3992.316,56.66,54.99,55.0,,36.38
131,3992.466,56.63,54.99,55.0,,36.37
132,3992.616,56.61,54.99,55.0,,36.37
133,3992.766,56.59,54.99,55.0,,36.37
134,3992.766,,,,54.51,
135,3992.915,56.56,54.99,55.0,,36.36
136,3993.066,56.54,55.0,55.0,,36.36
137,3993.216,56.52,55.0,55.0,,36.35
138,3993.366,56.5,55.0,55.0,,36.35
139,3993.366,,,,54.13,
140,3993.515,56.48,55.0,55.0,,36.35
141,3993.708,56.46,55.01,55.0,,36.34
142,3993.836,56.44,55.01,55.0,,36.34
143,3993.985,56.4,55.01,55.0,,36.33
144,3993.985,,,,54.26,
145,3994.135,56.38,55.01,55.0,,36.33
146,3994.285,56.35,55.01,55.0,,36.33
147,3994.436,56.32,55.01,55.0,,36.33
148,3994.585,56.29,55.0,55.0,,36.32
149,3994.585,,,,54.04,
150,3994.736,56.26,55.0,55.0,,36.31
151,3994.885,56.24,55.0,55.0,,36.31
152,3995.036,56.22,55.0,55.0,,36.3
153,3995.186,56.22,55.0,55.0,,36.31
154,3995.186,,,,54.04,
155,3995.336,56.22,55.0,55.0,,36.3
156,3995.486,56.21,55.0,55.0,,36.29
157,3995.636,56.2,55.0,55.0,,36.29
158,3995.786,56.18,55.0,55.0,,36.28
159,3995.786,,,,53.99,
160,3995.936,56.18,55.01,55.0,,36.28
161,3996.086,56.17,55.01,55.0,,36.28
162,3996.236,56.16,55.01,55.0,,36.27
163,3996.385,56.15,55.01,55.0,,36.27
164,3996.385,,,,54.04,
165,3996.535,56.14,55.02,55.0,,36.26
166,3996.686,56.13,55.02,55.0,,36.27
167,3996.836,56.11,55.02,55.0,,36.26
168,3996.986,56.09,55.02,55.0,,36.25
169,3997.045,,,,53.86,
170,3997.136,56.07,55.02,55.0,,36.25
171,3997.285,56.06,55.02,55.0,,36.24
172,3997.435,56.05,55.02,55.0,,36.24
173,3997.585,56.03,55.02,55.0,,36.25
174,3997.585,,,,53.85,
175,3997.736,56.02,55.02,55.0,,36.24
176,3997.885,56.01,55.02,55.0,,36.23
177,3998.036,55.99,55.02,55.0,,36.23
178,3998.186,55.98,55.02,55.0,,36.23
179,3998.186,,,,54.61,
180,3998.336,55.96,55.02,55.0,,36.22
181,3998.486,55.96,55.02,55.0,,36.22
182,3998.636,55.95,55.02,55.0,,36.21
183,3998.786,55.94,55.02,55.0,,36.21
184,3998.786,,,,53.68,
185,3998.936,55.94,55.02,55.0,,36.21
186,3999.086,55.93,55.02,55.0,,36.2
187,3999.236,55.92,55.02,55.0,,36.19
188,3999.386,55.91,55.02,55.0,,36.19
189,3999.386,,,,54.09,
190,3999.536,55.91,55.02,55.0,,36.19
191,3999.686,55.9,55.02,55.0,,36.19
192,3999.836,55.89,55.02,55.0,,36.18
193,3999.986,55.88,55.02,55.0,,36.19
194,3999.986,,,,53.7,
195,4000.136,55.88,55.02,55.0,,36.18
196,4000.286,55.87,55.02,55.0,,36.17
197,4000.436,55.87,55.02,55.0,,36.17
198,4000.586,55.86,55.02,55.0,,36.16
199,4000.586,,,,53.88,
200,4000.736,55.85,55.02,55.0,,36.16
201,4000.886,55.85,55.02,55.0,,36.15
202,4001.036,55.84,55.02,55.0,,36.15
203,4001.186,55.84,55.02,55.0,,36.15
204,4001.186,,,,53.66,
205,4001.336,55.83,55.02,55.0,,36.14
206,4001.486,55.82,55.02,55.0,,36.14
207,4001.636,55.81,55.02,55.0,,36.14
208,4001.786,55.81,55.02,55.0,,36.14
209,4001.786,,,,53.74,
210,4001.936,55.8,55.02,55.0,,36.13
211,4002.086,55.79,55.02,55.0,,36.13
212,4002.236,55.79,55.02,55.0,,36.13
213,4002.386,55.78,55.02,55.0,,36.12
214,4002.386,,,,53.62,
215,4002.536,55.78,55.02,55.0,,36.12
216,4002.686,55.78,55.02,55.0,,36.12
217,4002.836,55.78,55.02,55.0,,36.12
218,4002.986,55.78,55.02,55.0,,36.11
219,4002.986,,,,53.68,
220,4003.136,55.77,55.02,55.0,,36.11
221,4003.286,55.77,55.02,55.0,,36.1
222,4003.436,55.75,55.02,55.0,,36.1
223,4003.586,55.75,55.02,55.0,,36.1
224,4003.586,,,,53.62,
225,4003.736,55.75,55.02,55.0,,36.09
226,4003.886,55.74,55.02,55.0,,36.09
227,4004.036,55.74,55.02,55.0,,36.09
228,4004.186,55.73,55.01,55.0,,36.09
229,4004.186,,,,53.69,
230,4004.336,55.73,55.01,55.0,,36.08
231,4004.486,55.72,55.01,55.0,,36.08
232,4004.636,55.72,55.01,55.0,,36.07
233,4004.786,55.71,55.01,55.0,,36.07
234,4004.795,,,,54.37,
235,4004.936,55.71,55.01,55.0,,36.07
236,4005.086,55.71,55.01,55.0,,36.06
237,4005.236,55.71,55.01,55.0,,36.06
238,4005.386,55.71,55.01,55.0,,36.06
239,4005.386,,,,53.6,
240,4005.536,55.71,55.01,55.0,,36.06
241,4005.717,55.7,55.01,55.0,,36.05
242,4005.867,55.7,55.01,55.0,,36.05
243,4006.017,55.69,55.01,55.0,,36.05
244,4006.017,,,,53.93,
245,4006.167,55.69,55.01,55.0,,36.04
246,4006.317,55.69,55.01,55.0,,36.04
247,4006.467,55.69,55.01,55.0,,36.03
248,4006.617,55.69,55.01,55.0,,36.03
249,4006.617,,,,53.62,
250,4006.767,55.69,55.01,55.0,,36.03
251,4006.917,55.69,55.01,55.0,,36.03
252,4007.068,55.69,55.01,55.0,,36.02
253,4007.217,55.68,55.01,55.0,,36.02
254,4007.217,,,,53.74,
255,4007.367,55.68,55.01,55.0,,36.01
256,4007.517,55.69,55.01,55.0,,36.01
257,4007.667,55.68,55.01,55.0,,36.01
258,4007.817,55.68,55.01,55.0,,36.01
259,4007.817,,,,53.58,
260,4007.967,55.68,55.01,55.0,,36.0
261,4008.117,55.67,55.01,55.0,,36.0
262,4008.267,55.67,55.01,55.0,,36.0
263,4008.417,55.67,55.01,55.0,,36.0
264,4008.417,,,,53.67,
265,4008.567,55.67,55.01,55.0,,35.99
266,4008.717,55.67,55.01,55.0,,35.99
267,4008.867,55.67,55.01,55.0,,35.99
268,4009.017,55.67,55.01,55.0,,35.98
269,4009.017,,,,53.58,
270,4009.167,55.67,55.01,55.0,,35.98
271,4009.317,55.66,55.01,55.0,,35.98
272,4009.467,55.66,55.01,55.0,,35.97
273,4009.617,55.66,55.01,55.0,,35.97
274,4009.617,,,,53.68,
275,4009.767,55.66,55.01,55.0,,35.97
276,4009.917,55.66,55.01,55.0,,35.96
277,4010.067,55.66,55.01,55.0,,35.96
278,4010.217,55.66,55.01,55.0,,35.96
279,4010.217,,,,53.58,
280,4010.367,55.66,55.01,55.0,,35.96
281,4010.517,55.66,55.01,55.0,,35.95
282,4010.667,55.65,55.01,55.0,,35.95
283,4010.817,55.65,55.01,55.0,,35.94
284,4010.967,55.66,55.01,55.0,,35.94
285,4010.967,,,,53.59,
286,4011.117,55.65,55.01,55.0,,35.94
287,4011.267,55.65,55.01,55.0,,35.93
288,4011.417,55.64,55.01,55.0,,35.93
289,4011.567,55.64,55.01,55.0,,35.93
290,4011.567,,,,54.32,
291,4011.717,55.64,55.01,55.0,,35.93
292,4011.867,55.64,55.01,55.0,,35.92
293,4012.017,55.65,55.01,55.0,,35.92
294,4012.167,55.64,55.01,55.0,,35.92
295,4012.167,,,,53.58,
296,4012.317,55.64,55.01,55.0,,35.91
297,4012.467,55.64,55.01,55.0,,35.91
298,4012.618,55.63,55.01,55.0,,35.91
299,4012.767,55.63,55.01,55.0,,35.91
300,4012.767,,,,53.75,
301,4012.917,55.63,55.01,55.0,,35.9
302,4013.067,55.63,55.01,55.0,,35.9
303,4013.217,55.64,55.01,55.0,,35.9
304,4013.367,55.64,55.01,55.0,,35.9
305,4013.367,,,,53.47,
306,4013.517,55.63,55.01,55.0,,35.89
307,4013.667,55.63,55.01,55.0,,35.89
308,4013.817,55.63,55.01,55.0,,35.89
309,4013.967,55.63,55.01,55.0,,35.88
310,4013.967,,,,53.71,
311,4014.117,55.63,55.01,55.0,,35.88
312,4014.267,55.63,55.01,55.0,,35.88
313,4014.417,55.63,55.01,55.0,,35.88
314,4014.567,55.63,55.01,55.0,,35.87
315,4014.567,,,,53.56,
316,4014.753,55.63,55.01,55.0,,35.87
317,4014.904,55.63,55.01,55.0,,35.87
318,4015.053,55.63,55.01,55.0,,35.86
319,4015.203,55.63,55.01,55.0,,35.86
320,4015.203,,,,53.66,
321,4015.353,55.63,55.01,55.0,,35.86
322,4015.503,55.63,55.01,55.0,,35.86
323,4015.653,55.63,55.01,55.0,,35.86
324,4015.803,55.63,55.01,55.0,,35.85
325,4015.803,,,,53.55,
326,4015.953,55.62,55.01,55.0,,35.85
327,4016.103,55.62,55.01,55.0,,35.85
328,4016.253,55.62,55.01,55.0,,35.85
329,4016.403,55.62,55.01,55.0,,35.84
330,4016.403,,,,53.64,
331,4016.553,55.62,55.01,55.0,,35.84
332,4016.703,55.62,55.01,55.0,,35.84
333,4016.853,55.62,55.01,55.0,,35.83
334,4017.003,55.62,55.01,55.0,,35.83
335,4017.003,,,,53.67,
336,4017.153,55.61,55.0,55.0,,35.83
337,4017.303,55.62,55.0,55.0,,35.83
338,4017.453,55.62,55.0,55.0,,35.82
339,4017.603,55.62,55.0,55.0,,35.82
340,4017.603,,,,53.61,
341,4017.753,55.62,55.0,55.0,,35.82
342,4017.903,55.62,55.0,55.0,,35.81
343,4018.053,55.62,55.01,55.0,,35.81
344,4018.204,55.62,55.01,55.0,,35.81
345,4018.204,,,,54.65,
346,4018.353,55.62,55.01,55.0,,35.81
347,4018.503,55.62,55.01,55.0,,35.8
348,4018.653,55.62,55.01,55.0,,35.8
349,4018.803,55.62,55.01,55.0,,35.8
350,4018.803,,,,53.54,
351,4018.953,55.62,55.01,55.0,,35.8
352,4019.103,55.62,55.01,55.0,,35.79
353,4019.253,55.62,55.01,55.0,,35.79
354,4019.403,55.62,55.01,55.0,,35.79
355,4019.403,,,,53.88,
356,4019.553,55.62,55.01,55.0,,35.78
357,4019.703,55.62,55.01,55.0,,35.78
358,4019.853,55.62,55.01,55.0,,35.78
359,4020.003,55.62,55.01,55.0,,35.78
360,4020.003,,,,53.59,
361,4020.153,55.61,55.01,55.0,,35.78
362,4020.303,55.61,55.0,55.0,,35.77
363,4020.453,55.61,55.0,55.0,,35.77
364,4020.603,55.61,55.0,55.0,,35.77
365,4020.603,,,,53.76,
366,4020.753,55.62,55.0,55.0,,35.76
367,4020.903,55.62,55.0,55.0,,35.76
368,4021.053,55.62,55.0,55.0,,35.76
369,4021.203,55.62,55.01,55.0,,35.76
370,4021.203,,,,53.57,
371,4021.353,55.62,55.01,55.0,,35.76
372,4021.503,55.62,55.01,55.0,,35.75
373,4021.653,55.62,55.01,55.0,,35.75
374,4021.803,55.63,55.01,55.0,,35.75
375,4021.803,,,,53.66,
376,4021.953,55.62,55.01,55.0,,35.74
377,4022.103,55.62,55.01,55.0,,35.74
378,4022.253,55.62,55.01,55.0,,35.74
379,4022.403,55.62,55.01,55.0,,35.74
380,4022.403,,,,53.6,
381,4022.553,55.62,55.01,55.0,,35.74
382,4022.703,55.61,55.01,55.0,,35.73
383,4022.853,55.61,55.01,55.0,,35.73
384,4023.003,55.62,55.01,55.0,,35.73
385,4023.003,,,,53.62,
386,4023.153,55.62,55.01,55.0,,35.72
387,4023.303,55.62,55.01,55.0,,35.72
388,4023.454,55.62,55.01,55.0,,35.72
389,4023.603,55.62,55.01,55.0,,35.72
390,4023.603,,,,53.64,
391,4023.754,55.62,55.01,55.0,,35.72
392,4023.903,55.61,55.01,55.0,,35.71
393,4024.053,55.61,55.01,55.0,,35.71
394,4024.203,55.6,55.01,55.0,,35.71
395,4024.203,,,,53.58,
396,4024.354,55.61,55.0,55.0,,35.7
397,4024.504,55.6,55.0,55.0,,35.7
398,4024.654,55.6,55.0,55.0,,35.7
399,4024.804,55.6,55.0,55.0,,35.7
400,4024.822,,,,54.56,
401,4024.954,55.6,55.0,55.0,,35.69
402,4025.104,55.61,55.0,55.0,,35.69
403,4025.254,55.61,55.0,55.0,,35.69
404,4025.404,55.62,55.0,55.0,,35.69
405,4025.404,,,,53.61,
406,4025.554,55.62,55.0,55.0,,35.68
407,4025.704,55.63,55.01,55.0,,35.68
408,4025.854,55.62,55.01,55.0,,35.68
409,4026.004,55.61,55.01,55.0,,35.68
410,4026.004,,,,53.81,
411,4026.154,55.61,55.01,55.0,,35.67
412,4026.305,55.61,55.0,55.0,,35.67
413,4026.454,55.61,55.0,55.0,,35.67
414,4026.604,55.61,55.0,55.0,,35.67
415,4026.604,,,,53.61,
416,4026.784,55.61,55.0,55.0,,35.66
417,4026.934,55.61,55.0,55.0,,35.66
418,4027.084,55.61,55.0,55.0,,35.66
419,4027.234,55.61,55.0,55.0,,35.66
420,4027.234,,,,53.79,
421,4027.384,55.61,55.0,55.0,,35.66
422,4027.534,55.61,55.0,55.0,,35.65
423,4027.684,55.62,55.0,55.0,,35.65
424,4027.834,55.61,55.0,55.0,,35.65
425,4027.834,,,,53.68,
426,4027.984,55.61,55.0,55.0,,35.65
427,4028.134,55.61,55.0,55.0,,35.65
428,4028.284,55.61,55.0,55.0,,35.65
429,4028.434,55.62,55.0,55.0,,35.65
430,4028.434,,,,53.67,
431,4028.584,55.61,55.0,55.0,,35.64
432,4028.734,55.61,55.0,55.0,,35.63
433,4028.884,55.61,55.0,55.0,,35.63
434,4029.034,55.62,55.0,55.0,,35.63
435,4029.034,,,,53.62,
436,4029.184,55.61,55.01,55.0,,35.63
437,4029.334,55.61,55.0,55.0,,35.63
438,4029.484,55.61,55.0,55.0,,35.63
439,4029.634,55.62,55.01,55.0,,35.62
440,4029.634,,,,53.63,
441,4029.784,55.62,55.01,55.0,,35.62
442,4029.934,55.63,55.01,55.0,,35.62
443,4030.084,55.63,55.01,55.0,,35.62
444,4030.234,55.62,55.01,55.0,,35.62
445,4030.234,,,,53.6,
446,4030.384,55.62,55.01,55.0,,35.62
447,4030.534,55.61,55.01,55.0,,35.61
448,4030.684,55.61,55.01,55.0,,35.61
449,4030.834,55.61,55.01,55.0,,35.61
450,4030.834,,,,53.57,
451,4030.984,55.62,55.01,55.0,,35.61
452,4031.134,55.62,55.01,55.0,,35.6
453,4031.284,55.62,55.01,55.0,,35.6
454,4031.434,55.62,55.01,55.0,,35.6
455,4031.544,,,,53.93,
456,4031.585,55.61,55.01,55.0,,35.6
457,4031.734,55.6,55.01,55.0,,35.59
458,4031.884,55.6,55.0,55.0,,35.59
459,4032.034,55.6,55.0,55.0,,35.59
460,4032.034,,,,53.65,
461,4032.184,55.61,55.0,55.0,,35.58
462,4032.334,55.61,55.0,55.0,,35.58
463,4032.484,55.61,55.0,55.0,,35.58
464,4032.634,55.61,55.0,55.0,,35.57
465,4032.649,,,,54.18,
466,4032.784,55.61,55.0,55.0,,35.57
467,4032.934,55.62,55.0,55.0,,35.57
468,4033.084,55.62,55.0,55.0,,35.57
469,4033.234,55.62,55.01,55.0,,35.56
470,4033.234,,,,53.63,
471,4033.384,55.62,55.01,55.0,,35.57
472,4033.534,55.62,55.01,55.0,,35.57
473,4033.684,55.62,55.01,55.0,,35.56
474,4033.834,55.61,55.01,55.0,,35.56
475,4033.834,,,,53.82,
476,4033.984,55.61,55.01,55.0,,35.56
477,4034.134,55.61,55.01,55.0,,35.56
478,4034.284,55.61,55.01,55.0,,35.56
479,4034.434,55.61,55.01,55.0,,35.55
480,4034.434,,,,53.62,
481,4034.584,55.61,55.01,55.0,,35.55
482,4034.734,55.62,55.01,55.0,,35.55
483,4034.885,55.61,55.01,55.0,,35.55
484,4035.034,55.61,55.01,55.0,,35.55
485,4035.034,,,,53.82,
486,4035.184,55.61,55.01,55.0,,35.55
487,4035.334,55.62,55.01,55.0,,35.54
488,4035.484,55.62,55.01,55.0,,35.54
489,4035.634,55.61,55.01,55.0,,35.54
490,4035.784,55.61,55.01,55.0,,35.53
491,4035.784,,,,53.59,
492,4035.934,55.62,55.01,55.0,,35.53
493,4036.084,55.62,55.01,55.0,,35.53
494,4036.234,55.61,55.01,55.0,,35.52
495,4036.384,55.62,55.01,55.0,,35.53
496,4036.384,,,,53.69,
497,4036.534,55.61,55.01,55.0,,35.53
498,4036.684,55.61,55.01,55.0,,35.52
499,4036.834,55.61,55.0,55.0,,35.52
500,4036.984,55.6,55.0,55.0,,35.52
501,4036.984,,,,53.61,
502,4037.135,55.6,55.0,55.0,,35.52
503,4037.284,55.61,55.0,55.0,,35.52
504,4037.434,55.62,55.0,55.0,,35.51
505,4037.584,55.61,55.0,55.0,,35.51
506,4037.584,,,,53.68,
507,4037.734,55.62,55.0,55.0,,35.5
508,4037.884,55.62,55.0,55.0,,35.5
509,4038.034,55.61,55.0,55.0,,35.5
510,4038.034,,,,53.63,
511,4038.184,55.61,55.0,55.0,,35.5
512,4038.334,55.61,55.0,55.0,,35.5
513,4038.484,55.61,55.0,55.0,,35.49
514,4038.634,55.61,55.0,55.0,,35.49
515,4038.634,,,,53.64,
516,4038.81,55.61,55.0,55.0,,35.49
517,4038.96,55.61,55.0,55.0,,35.49
518,4039.11,55.61,55.0,55.0,,35.49
519,4039.261,55.61,55.0,55.0,,35.48
520,4039.351,,,,53.92,
521,4039.41,55.61,55.0,55.0,,35.48
522,4039.561,55.61,55.0,55.0,,35.48
523,4039.711,55.61,55.0,55.0,,35.47
524,4039.86,55.61,55.0,55.0,,35.47
525,4039.86,,,,53.65,
526,4040.009,55.61,55.0,55.0,,35.47
527,4040.161,55.61,55.0,55.0,,35.47
528,4040.31,55.61,55.0,55.0,,35.47
529,4040.46,55.6,55.0,55.0,,35.47
530,4040.465,,,,54.46,
531,4040.61,55.6,55.0,55.0,,35.46
532,4040.76,55.61,55.0,55.0,,35.46
533,4040.91,55.61,55.0,55.0,,35.46
534,4041.06,55.61,55.0,55.0,,35.46
535,4041.06,,,,53.66,
536,4041.21,55.61,55.0,55.0,,35.46
537,4041.36,55.62,55.0,55.0,,35.46
538,4041.51,55.61,55.0,55.0,,35.45
539,4041.66,55.61,55.0,55.0,,35.45
540,4041.66,,,,53.84,
541,4041.81,55.62,55.0,55.0,,35.45
542,4041.96,55.61,55.0,55.0,,35.45
543,4042.109,55.61,55.0,55.0,,35.44
544,4042.26,55.61,55.0,55.0,,35.44
545,4042.26,,,,53.71,
546,4042.41,55.61,55.0,55.0,,35.44
547,4042.56,55.61,55.0,55.0,,35.44
548,4042.71,55.61,55.0,55.0,,35.44
549,4042.86,55.61,55.0,55.0,,35.44
550,4042.86,,,,53.82,
551,4043.01,55.61,55.0,55.0,,35.44
552,4043.16,55.61,55.0,55.0,,35.44
553,4043.31,55.61,55.0,55.0,,35.43
554,4043.459,55.61,55.0,55.0,,35.43
555,4043.459,,,,53.65,
556,4043.61,55.61,55.0,55.0,,35.43
557,4043.76,55.6,55.0,55.0,,35.42
558,4043.91,55.61,55.0,55.0,,35.42
559,4044.06,55.61,55.0,55.0,,35.42
560,4044.06,,,,53.79,
561,4044.21,55.61,55.0,55.0,,35.42
562,4044.36,55.61,55.0,55.0,,35.42
563,4044.51,55.61,55.0,55.0,,35.42
564,4044.66,55.62,55.0,55.0,,35.41
565,4044.66,,,,53.68,
566,4044.81,55.62,55.0,55.0,,35.41
567,4044.96,55.62,55.0,55.0,,35.41
568,4045.11,55.62,55.01,55.0,,35.41
569,4045.26,55.62,55.01,55.0,,35.41
570,4045.26,,,,53.69,
571,4045.41,55.61,55.01,55.0,,35.4
572,4045.56,55.61,55.01,55.0,,35.4
573,4045.71,55.61,55.01,55.0,,35.4
574,4045.859,55.6,55.0,55.0,,35.4
575,4045.859,,,,53.7,
576,4046.011,55.6,55.0,55.0,,35.4
577,4046.16,55.61,55.0,55.0,,35.4
578,4046.31,55.61,55.0,55.0,,35.39
579,4046.459,55.61,55.0,55.0,,35.39
580,4046.459,,,,53.68,
581,4046.61,55.61,55.0,55.0,,35.39
582,4046.76,55.61,55.0,55.0,,35.39
583,4046.91,55.61,55.0,55.0,,35.39
584,4047.06,55.61,55.0,55.0,,35.39
585,4047.209,55.61,55.0,55.0,,35.39
586,4047.209,,,,54.49,
587,4047.36,55.61,55.0,55.0,,35.38
588,4047.51,55.61,55.0,55.0,,35.38
589,4047.66,55.61,55.0,55.0,,35.37
590,4047.66,,,,53.73,
591,4047.845,55.6,55.0,55.0,,35.37
592,4047.995,55.61,55.0,55.0,,35.38
